m1,s1,a1,p1,m2,s2,a2,p2,m3,s3,a3,p3,label
157.7943,27.6873,157.7943,204.3732,-73.826,42.2423,74.6876,142.3666,3.7155,38.1518,34.3103,71.056,0
119.1569,30.0509,119.1569,177.5391,-27.2538,37.3051,38.1794,84.1106,0.1522,30.1107,26.8062,51.4554,0
87.9383,30.5088,87.9383,142.4376,21.1171,33.9734,33.089,74.1434,-4.1231,33.4179,28.1556,65.9733,0
49.2741,32.493,49.2741,128.0474,54.8605,36.5629,55.2516,111.9086,-5.5099,39.426,33.0953,77.8384,0
19.2277,22.0709,23.2265,64.6517,80.346,34.6911,80.346,131.5975,-9.0919,33.9383,29.6192,66.647,0
-6.1518,24.4659,21.4762,49.6122,84.4849,28.657,84.4849,130.342,-6.7047,40.8824,34.1041,91.9783,0
-11.2533,28.7084,25.7102,57.7235,88.8338,29.5725,88.8338,141.0594,-3.4233,41.7181,36.8461,79.0245,0
-18.1766,24.7511,25.8774,55.9238,88.6282,32.2457,88.6282,141.0654,-4.3875,29.3126,25.4926,60.3823,0
-22.4926,26.3882,28.3926,66.4187,77.1729,32.5364,77.1729,134.0382,-5.2383,41.7085,36.6548,73.2064,0
-37.1507,26.4706,38.8632,85.2029,75.4548,35.128,75.4548,137.5156,-1.8368,24.9457,19.4654,69.5974,0
-38.7855,25.947,39.1024,83.4003,72.0045,31.8522,72.0045,127.8344,0.7225,33.1947,29.9198,65.3842,0
-44.7379,25.807,45.6824,80.3931,72.878,34.4353,72.878,129.1754,2.5544,34.9651,31.2252,66.389,0
-44.1327,26.7928,44.1327,86.9309,72.348,34.0341,72.348,144.3093,2.1903,29.0743,25.5704,53.3674,0
-46.0018,24.246,46.008,84.077,50.1624,34.262,50.6134,106.6375,6.3734,33.3329,29.8646,57.2537,0
-45.7401,24.0994,45.7401,94.0259,41.7934,30.9226,43.2653,96.6241,1.1365,24.9209,20.9687,56.1444,0
-46.567,28.9344,46.9198,103.4976,23.0943,35.2882,34.123,87.8003,1.4736,26.696,22.8813,51.5115,0
-58.0644,23.4634,58.0644,95.543,9.8175,36.5472,32.8029,68.6677,-3.7665,33.7072,30.164,59.5377,0
-45.2392,28.9904,45.8938,91.6398,5.791,35.174,30.4719,68.8357,13.2448,36.1432,33.281,74.0939,0
-50.4759,24.7851,50.8119,85.9435,-3.6022,33.6176,30.1503,59.5404,-5.2096,44.7713,38.3586,76.1907,0
-36.034,23.9314,36.0414,78.6898,-4.1397,28.1837,25.385,48.3317,4.5271,25.2513,22.2782,52.7214,0
-33.7229,26.6814,36.4307,75.8834,-22.3851,32.9019,34.1892,75.1226,-10.9521,27.4672,25.0726,59.5602,0
-23.2726,22.687,26.6034,69.6886,-12.3355,28.543,26.74,51.6013,2.6215,46.0532,40.3301,69.5367,0
-16.1926,22.4154,23.3234,52.2626,-25.552,31.6145,33.9736,75.0474,-12.2797,34.3985,32.1558,73.1797,0
-12.072,25.9255,23.8444,56.1967,-26.4891,35.3122,34.9743,90.7185,10.9209,46.966,41.7414,96.0259,0
-5.736,26.2115,21.8845,61.2448,-28.5301,29.2759,35.513,65.8947,-10.1099,40.3581,37.0577,78.311,0
14.5512,21.5516,20.5061,53.3943,-18.3318,37.5798,35.8475,74.9132,14.316,29.9661,26.743,67.1053,0
3.6392,26.4911,22.7917,49.433,-26.7388,36.9896,38.0319,87.319,-1.7044,28.7605,23.6016,54.8744,0
12.7569,29.2876,26.9194,58.8209,-12.7163,40.7498,36.8823,75.2566,10.7089,36.2365,33.0447,68.313,0
23.3473,30.9405,30.67,81.678,-20.5574,32.9004,33.6597,63.8806,5.0807,42.4729,36.2339,83.9393,0
32.2474,18.4874,32.2474,69.2126,-24.4981,29.9648,30.1464,84.3507,-6.1914,31.4035,27.5006,55.0292,0
9.0255,26.802,23.5067,55.3878,-43.8251,34.4769,47.5716,88.4921,4.4576,33.9841,28.8121,74.5916,0
4.8991,26.1617,22.3165,55.2726,-22.9242,40.1278,37.3641,89.6835,2.6241,24.8818,22.1881,43.3197,0
-5.9965,21.0548,19.1026,38.1215,-47.8137,30.214,49.6994,89.3846,-8.1863,44.1247,35.7245,97.3778,0
-8.9681,26.3309,22.6271,62.621,-56.1688,33.3412,56.7646,112.1226,9.2398,28.2066,22.5511,73.3163,0
-24.6063,22.3068,27.7597,61.4227,-65.302,30.0556,65.302,118.4644,3.4508,24.9227,20.0293,55.4017,0
-12.4135,26.3379,24.964,54.3715,-25.3651,36.1736,35.4248,85.9662,4.644,38.5512,31.6725,72.5042,0
-13.1194,22.2094,22.2516,50.563,-21.7423,28.5708,31.4871,62.524,-7.7007,24.3382,19.2105,71.4469,0
1.5362,23.4674,20.7455,37.0846,5.7054,31.6875,28.1684,58.8438,8.7612,37.8975,32.1973,74.9556,0
-5.963,21.3938,19.5071,37.0393,7.002,34.4175,30.1006,65.9883,-0.5358,29.7162,25.9812,56.5511,0
4.491,27.6691,24.5309,50.4934,21.9879,35.6329,34.8337,74.3511,-2.6177,46.995,40.3342,89.3824,0
-1.433,21.9386,18.4864,42.6162,23.3105,27.3794,28.4443,74.7076,-14.4259,40.5259,35.7323,84.095,0
3.9041,26.2171,23.5038,41.0334,59.791,32.5942,59.8988,104.8114,7.5247,28.0447,24.5051,50.3027,0
-0.9537,18.1573,15.6625,32.6647,68.0621,28.1315,68.0621,118.2388,-10.2068,36.2146,32.0555,75.4205,0
6.9263,23.9773,22.2288,41.3063,57.6886,32.0733,57.6886,115.6967,3.4397,35.0032,30.8021,67.1177,0
1.2488,20.1216,17.2891,36.6595,28.9579,31.2067,33.2118,82.0441,-2.8064,27.7185,23.812,45.984,0
9.5398,30.1212,27.6225,54.6976,26.1862,32.2263,34.019,73.6818,6.4947,49.7168,42.0495,92.2799,0
-5.9568,22.4169,19.9936,45.3235,5.7037,29.6362,26.128,56.3694,3.8788,33.3394,28.4013,64.2316,0
-9.7613,25.8494,22.0945,66.9948,6.8499,32.2438,29.2394,56.087,-4.374,60.6349,49.6301,127.2227,0
-25.1825,24.3557,30.1524,60.3738,-6.4165,27.2482,24.578,47.3228,-7.0513,41.627,31.0594,98.2372,0
-12.2773,25.5762,22.7928,58.5698,-3.1541,34.1808,30.6333,56.4939,3.952,44.4381,40.426,69.1276,0
-15.3937,23.0823,23.0828,52.7827,-13.5479,34.8659,32.7582,65.7155,2.6078,48.0898,42.8579,85.1467,1
-13.2513,24.2097,23.3954,54.4497,-13.1992,38.3876,35.6314,67.7253,-2.0305,38.0287,32.4986,80.6212,1
-5.5453,23.5274,20.0156,54.5322,-8.7267,30.9429,28.3746,56.1736,2.8121,34.1755,28.5107,71.895,1
0.652,25.8619,22.9467,41.8934,-8.7893,32.3325,30.1138,50.7772,1.6146,52.5081,43.8208,98.0333,1
4.8972,26.8954,23.8677,50.4293,-8.4692,27.8151,25.425,46.3854,-9.6403,36.559,31.5298,78.6045,1
7.2511,25.4367,21.8745,53.3752,-6.6345,35.9641,32.486,61.3967,4.334,28.5782,25.386,52.1086,1
10.3473,23.8962,21.628,48.9583,-10.7262,33.0871,30.5671,61.5862,6.0053,34.4017,29.1549,66.9081,1
7.0033,21.2867,18.7811,49.9647,-8.2187,31.3159,28.9003,48.8492,-12.2582,36.0595,32.7824,76.5183,1
6.5134,23.2417,20.5678,44.6016,-6.315,25.1791,22.9064,43.302,3.94,48.633,40.3756,102.8516,1
0.3875,25.7267,21.7573,55.8096,-11.0483,28.4412,26.7134,47.6899,-13.1498,36.0291,33.4288,62.5553,1
-0.1767,23.4159,20.751,39.1489,1.0486,29.05,25.8981,47.9846,11.4227,29.0783,27.541,52.672,1
25.4589,48.2331,43.19,106.2716,9.5486,54.8468,49.3741,91.0023,-27.5763,66.5658,59.775,154.6058,1
44.4078,40.9557,54.2388,98.1155,9.2839,58.6236,49.7947,120.9578,2.192,78.2307,65.8636,159.0566,1
65.8236,117.292,113.2943,289.3182,4.1372,90.4076,80.1567,164.1047,-1.5595,88.421,74.2916,167.4653,1
-212.2277,186.3409,228.7811,505.5123,29.9879,106.5406,85.324,243.4622,-9.1412,124.1664,95.378,302.4907,1
-110.4145,133.0937,125.1226,386.576,226.1838,85.8505,226.1838,359.5763,-35.4983,152.5356,132.7217,376.6908,1
-54.9988,158.8372,138.2864,394.8024,479.0268,228.0001,479.0268,791.2073,137.2875,126.155,151.4702,402.6239,1
40.4627,179.7277,156.9639,331.7552,730.0833,162.3394,730.0833,984.6807,61.9953,80.3737,83.5615,190.3573,1
221.7535,168.7626,221.7535,733.1423,1421.3796,132.9029,1421.3796,1638.7756,-57.2054,56.1046,61.5758,179.6412,1
71.8069,213.1527,192.7671,452.8068,1307.1998,94.6882,1307.1998,1470.8887,17.7502,72.9612,67.2954,133.1328,1
173.5874,196.3151,203.5977,605.3643,1016.7679,73.6491,1016.7679,1144.0881,7.1845,74.1472,65.0307,118.4855,1
161.5044,168.9746,194.9218,412.1012,790.8635,57.2864,790.8635,889.8962,-1.408,86.6828,73.8172,155.9106,1
-24.5873,213.3466,175.9421,430.106,615.1497,44.5584,615.1497,692.1797,29.5183,121.5928,105.757,240.7889,1
-110.0605,121.7587,148.8001,266.7255,478.4758,34.6586,478.4758,538.3916,31.3309,72.3614,67.0812,159.7979,1
23.5099,125.9141,109.5682,231.1714,372.1678,26.9586,372.1678,418.7715,16.5914,79.1601,67.6751,183.7115,1
12.7132,226.1228,157.8898,556.5344,289.4792,20.9693,289.4792,325.7285,35.3324,112.0621,90.3767,278.0992,1
77.1676,193.8897,188.1053,337.4497,-8.5457,352.915,320.5416,629.0593,14.1803,53.8013,42.7859,130.202,1
-30.2651,150.3604,113.6936,318.3268,-613.2065,281.3326,613.2153,954.6746,-7.774,74.0925,60.6624,157.9877,1
-48.8398,238.995,206.9651,452.9557,-924.5438,200.3416,924.5438,1188.7634,9.2093,96.7511,84.1971,162.218,1
10.5098,205.6024,170.5941,367.8525,-1005.4226,134.3196,1005.4226,1226.7285,-43.6754,88.3052,64.1037,234.1293,1
-114.6166,111.9058,133.1911,301.0511,-1172.7245,130.6404,1172.7245,1454.2979,25.9879,97.2685,65.0612,290.7731,1
-15.2004,154.8626,128.5763,304.3104,-1215.1818,150.4075,1215.1818,1526.4021,-38.8556,71.7054,68.6889,137.7826,1
-58.0817,133.7074,122.3459,298.3921,-1203.0327,130.8808,1203.0327,1478.2678,-12.1223,75.3804,64.1077,176.2153,1
-34.529,236.3759,200.2466,422.9586,-1040.7124,194.6704,1040.7124,1343.5618,-28.7964,89.5361,67.2804,255.3934,1
-36.7801,229.1828,200.7047,398.2203,-906.5595,212.5596,906.5595,1200.266,-34.7083,104.7531,92.2961,269.7687,1
-7.1132,306.2523,243.8818,589.0621,-568.6435,143.0683,568.6435,869.3973,2.4306,92.6354,76.9827,218.8458,1
-45.1905,128.3819,106.2442,355.4714,-318.3124,120.9433,318.3124,523.7155,-48.7818,114.2671,102.2169,284.4757,1
31.6185,266.6918,219.4797,501.5807,-194.8887,135.3547,202.1744,445.4441,-8.3169,107.7517,92.9292,287.5709,1
-34.1861,196.2358,170.9004,373.5613,-226.2533,285.5313,317.9091,634.5455,-45.0066,71.0888,71.9053,156.118,1
-45.2833,165.5544,140.7574,355.9344,-226.7343,288.9212,296.0513,706.8168,-16.3475,74.706,61.5044,152.4709,1
5.2982,138.5962,108.7732,286.6597,-140.1028,149.2864,168.4201,401.6785,-16.522,74.0597,65.3608,126.5555,1
-30.3742,191.4357,158.3107,368.9969,-125.0734,108.0493,144.8627,287.316,-4.1447,77.3647,63.006,178.0675,1
-101.5698,150.4861,142.6592,375.3597,-191.5816,154.5943,194.5732,456.0099,11.7883,82.6542,73.1095,180.4648,1
-18.644,128.1775,102.9473,294.7579,-164.3555,173.0046,195.6199,479.8411,-8.7891,43.6214,37.7595,79.8367,1
-22.0133,174.3039,145.0787,331.2606,-106.863,143.9547,158.5015,290.1625,-21.6353,61.545,56.366,140.2769,1
-37.6621,206.5693,162.275,407.8354,-62.3599,145.1345,124.7099,305.5726,4.3613,63.1726,49.9922,160.896,1
38.8231,141.4508,118.2115,302.2968,-65.6839,114.308,115.2779,219.5488,-5.0044,72.1968,58.5322,156.7998,1
8.931,90.9878,79.0427,161.99,-50.3907,78.7551,76.3373,186.5068,3.7412,66.4628,50.7817,153.2489,1
16.6446,254.9094,208.9556,570.6868,9.1278,162.8131,135.472,343.5699,23.3122,55.2593,45.6106,142.4806,1
31.5369,203.5596,168.0766,381.8396,85.9097,134.5292,128.8275,334.5186,4.1075,74.7607,61.349,155.4952,1
1.8879,229.0876,203.0918,387.9336,54.2319,228.9628,186.786,531.8838,-9.7183,113.1034,90.4578,237.5802,0
66.0383,153.9942,128.2012,402.6868,158.5993,110.0111,168.2368,366.1648,5.5122,79.5257,63.2283,204.7462,0
44.9342,142.5454,123.8722,375.426,119.8877,76.5815,121.1505,307.1708,-22.1481,95.6992,80.753,220.3823,0
39.7846,108.4582,93.7295,319.5347,292.5656,163.8206,292.5656,631.5465,-13.3512,73.7884,59.5572,169.636,0
9.6379,190.259,161.3978,366.688,266.4311,166.0588,267.1216,608.0348,-50.967,160.8436,152.5905,286.4971,0
-11.5736,83.3814,66.6709,187.6794,248.9737,98.9623,248.9737,426.5632,-16.7871,77.4708,68.804,149.8013,0
-75.0174,63.8403,92.0536,160.0505,214.5248,82.5313,214.5248,366.0822,15.3397,40.6548,33.5064,97.8168,0
-72.8136,46.295,74.6457,156.7931,-398.0359,532.04,497.1182,1459.0227,48.7601,49.4775,51.8857,162.0824,0
-47.5887,64.4478,68.1316,158.7701,-1271.7223,92.1177,1271.7223,1430.9683,86.5855,109.2016,122.8396,221.4344,0
10.5392,66.7869,59.0005,136.0687,-989.1731,71.6517,989.1731,1113.0378,125.8034,138.9705,143.3755,402.2305,0
113.9576,41.0077,113.9576,175.3423,-769.4001,55.7327,769.4001,865.7449,104.1167,79.6274,110.239,234.9867,0
174.987,26.5343,174.987,217.9924,-598.4559,43.3504,598.4559,673.395,-70.537,107.3684,107.4479,237.2278,0
199.9156,31.1797,199.9156,235.9008,-465.4919,33.7185,465.4919,523.7811,-209.1274,67.6348,209.1274,372.2841,0
189.6387,41.6785,189.6387,286.3826,-362.0697,26.2269,362.0697,407.4083,-105.1913,74.3772,105.807,245.1826,0
71.3887,62.1876,72.8223,160.7446,-281.6257,20.3994,281.6257,316.891,-26.5142,33.7334,36.0642,92.9716,0
9.3947,41.2713,33.129,89.1189,322.2501,364.6801,431.0946,811.6492,-20.6298,70.2311,59.2502,156.2156,0
-10.6988,22.9356,21.2705,49.8182,1153.0142,163.3056,1153.0142,1407.4839,24.3396,47.9115,45.0513,94.1774,0
6.0669,25.0914,21.7897,51.547,1569.5217,82.186,1569.5217,1698.8167,35.9064,27.3725,40.3407,71.2031,0
-27.35,26.1035,31.2895,64.7109,1745.7253,54.1251,1745.7253,1839.8783,37.7699,45.4096,49.7663,110.1918,0
-22.1046,32.5327,30.983,77.4751,1874.5591,55.4527,1874.5591,2004.8718,2.0074,49.7406,42.9264,104.8081,0
-37.816,28.1664,40.7852,75.1669,1851.327,77.2948,1851.327,1982.2278,-85.9921,50.6468,85.9921,177.218,0
-34.2402,30.8025,37.3359,92.205,1491.6752,108.0564,1491.6752,1678.4648,-60.2059,48.3596,63.5772,153.6738,0
-51.0937,20.6661,51.0937,95.5927,1160.2567,84.0438,1160.2567,1305.5449,-18.3056,37.6618,31.5789,88.0613,0
-52.2171,29.203,52.2171,102.7294,902.4717,65.3711,902.4717,1015.4802,15.2518,49.0194,43.1101,102.4481,0
-55.8788,33.2989,56.8771,109.2911,701.9611,50.8456,701.9611,789.8613,33.8976,41.287,43.4681,108.9576,0
-61.9966,31.8311,62.2426,107.1377,545.9996,39.5493,545.9996,614.3704,70.1558,46.6055,70.7551,143.9956,0
-74.9811,25.082,74.9811,120.9305,424.6896,30.7625,424.6896,477.8699,79.1085,34.2756,79.1085,165.6119,0
-84.3971,31.7173,84.3971,135.7562,330.1392,24.1805,330.1392,371.6965,81.3499,37.4337,81.3499,153.0658,0
-74.7685,24.9159,74.7685,122.8411,179.8337,81.5313,179.8337,289.1602,85.2565,35.7644,85.2565,127.5762,0
-65.9431,30.6028,66.0208,107.203,-90.9954,70.84,101.718,235.3552,63.299,28.5349,64.0964,100.5237,0
-67.1312,25.9457,67.1312,112.2898,-269.7271,62.2359,269.7271,365.9048,74.7951,33.2887,74.7951,151.2555,0
-49.369,33.0788,49.369,112.1311,-388.5501,51.7061,388.5501,471.1255,25.3478,40.2531,36.4289,118.6079,0
-44.4089,33.3102,46.3534,111.9998,-461.9568,38.7666,461.9568,531.9463,35.8646,50.2165,51.5935,123.3792,0
-24.5773,28.7624,31.6586,74.7111,-497.1209,33.0493,497.1209,553.7617,4.7945,34.1597,29.3673,64.1335,0
-12.4081,28.3123,25.725,71.984,-517.2817,24.3505,517.2817,553.3142,-1.4712,40.2972,31.5366,89.6532,0
-7.7042,27.3657,25.3718,48.4395,-531.3579,27.1021,531.3579,568.3801,-16.0103,25.0128,21.5499,73.0907,0
1.6124,26.4236,22.6608,52.8002,-518.0624,32.2722,518.0624,566.9058,-6.2851,35.0171,29.4074,69.7557,0
7.0712,23.6955,20.4683,48.7793,-496.9712,29.5541,496.9712,555.1978,-31.3522,30.4794,35.0084,96.9347,0
11.0566,22.29,20.6639,47.2102,-463.6655,26.175,463.6655,509.6506,-19.6878,41.9631,36.6568,99.3878,0
3.2339,22.5595,17.5066,60.9087,-447.0891,29.3156,447.0891,495.1816,-38.1211,29.8629,40.3445,85.4976,0
18.7275,27.0953,26.1623,72.6708,-401.3256,24.0454,401.3256,442.0881,-17.7373,48.7947,41.88,103.0254,0
6.7571,27.2742,21.9109,66.9812,-380.1673,25.8754,380.1673,425.9751,-33.9288,32.5382,38.1967,101.5397,0
12.7575,20.4312,20.179,48.6691,-338.2139,27.058,338.2139,389.3198,-26.3546,31.6085,32.8415,90.5396,0
7.2311,23.8669,20.8469,48.7889,-317.138,31.5413,317.138,366.9299,-34.3089,46.9801,49.791,118.363,0
11.9796,21.0851,20.0938,47.2371,-271.8281,27.6624,271.8281,315.8264,-25.0524,39.0821,36.8984,100.264,0
0.1407,29.6539,25.046,54.9814,-246.1604,31.2923,246.1604,290.9309,-45.4291,46.3221,52.8122,135.6393,0
-3.4048,31.6299,27.7101,53.1891,-215.1899,26.1499,215.1899,265.2686,-9.6225,43.5332,37.7827,79.1198,0
-3.5731,23.8741,20.5022,46.2836,-194.789,29.532,194.789,251.5452,-28.7213,48.8608,45.3792,126.9237,0
4.5598,25.3548,18.4609,60.9259,-164.413,29.493,164.413,215.9282,-19.1856,54.016,47.3162,118.7347,0
2.3511,28.2186,23.9847,63.8815,-150.85,24.0593,150.85,198.5132,-18.6241,34.8882,32.8754,82.963,0
13.7998,27.505,24.9117,64.1022,-111.7807,27.6572,111.7807,157.8984,-15.4188,49.5529,44.7574,104.204,1
6.1767,30.006,25.1348,74.3619,-103.2197,25.2456,103.2197,152.8416,-18.9356,36.9605,30.8672,101.0077,1
10.1635,21.0462,18.3666,64.6266,-84.9232,26.3253,84.9232,126.1532,6.0116,46.3949,35.1649,107.943,1
10.9794,22.586,19.7729,55.8563,-74.7224,29.1223,74.7224,114.3986,3.3122,44.2608,36.0374,115.7736,1
31.9673,30.3393,33.7841,86.5742,-60.6843,30.1698,60.6843,109.7723,-10.6175,35.6281,31.2517,76.0885,1
51.0175,114.6968,98.7239,240.6632,-17.1525,111.6133,87.0023,243.9785,-9.1795,77.5365,60.6147,182.4839,1
8.7667,231.1709,194.6451,424.4508,166.1514,221.5394,245.4957,442.1115,-66.8882,167.5912,139.1455,388.1223,1
-106.0973,255.4751,235.6715,488.8113,259.3989,222.8449,273.1038,634.6245,-317.0288,278.1796,336.267,921.4407,1
-149.9802,145.0237,165.1604,501.6646,413.2003,402.8853,456.6867,1190.7408,-32.4418,194.6017,171.2631,363.6346,1
75.7936,320.8651,262.3741,741.4562,1542.5492,272.3068,1542.5492,1808.1218,-88.4074,94.1174,94.6618,299.5739,1
393.1059,195.92,393.1059,772.2489,1424.3353,103.171,1424.3353,1602.6919,-114.1438,109.0872,135.5434,300.0845,1
188.2014,259.2503,234.0591,811.6998,1107.8773,80.2502,1107.8773,1246.6069,-7.2138,147.5928,125.3424,273.0126,1
226.8683,155.0086,231.2873,652.722,861.7302,62.4194,861.7302,969.6367,24.5981,92.6563,83.3531,179.5145,1
111.8631,295.1941,248.1617,649.6587,670.2713,48.5529,670.2713,754.2036,99.6815,170.4416,167.3426,347.3754,1
38.641,175.7904,146.6826,383.7892,521.3508,37.7645,521.3508,586.6353,85.2959,90.8535,104.5961,259.4717,1
-21.3558,184.0386,151.2666,363.4852,405.5168,29.3743,405.5168,456.2964,110.7474,85.0899,117.5912,303.2599,1
-93.2274,208.3419,195.1331,454.1576,315.4186,22.8482,315.4186,354.916,94.2787,101.0488,109.1742,327.2993,1
-216.8094,227.3247,270.4572,513.7983,245.3387,17.7711,245.3387,276.0608,99.4553,128.6302,124.8367,404.5133,1
-160.167,203.5216,207.8204,556.6433,43.1296,275.618,230.9302,714.9988,76.6385,87.778,92.3579,343.0481,1
-248.007,204.3044,269.7409,574.9619,-940.6626,350.4514,940.6626,1301.1257,114.6836,98.4656,124.4316,284.943,1
-125.7868,207.5699,220.6387,455.3853,-1379.1637,306.1037,1379.1637,1842.0103,40.4216,101.6539,88.6889,215.8666,1
-132.5161,201.1265,201.3398,459.1331,-1637.5054,165.2299,1637.5054,1875.0928,81.3934,117.7834,108.1486,272.1783,1
-83.9174,124.5234,117.4479,343.0009,-1711.4904,188.2658,1711.4904,2041.6082,31.3569,107.2411,88.7037,236.6775,1
-18.5105,102.9159,89.302,188.4268,-1716.1837,184.4077,1716.1837,2083.157,13.8677,55.6094,46.4084,107.6848,1
-0.0974,112.2629,92.6494,225.916,-1563.239,196.4358,1563.239,1849.2031,25.2649,100.2633,72.0234,281.6376,1
57.3195,217.1407,173.7905,489.1681,-1349.5363,159.1333,1349.5363,1582.4772,21.4438,68.8757,61.0776,133.6093,1
65.6542,89.9539,96.7811,199.8317,-1118.8263,101.0593,1118.8263,1275.6685,-1.1726,69.6382,55.6127,166.9882,1
51.7329,137.8587,135.1555,247.6963,-849.7278,113.1056,849.7278,995.9623,20.2847,81.1481,66.795,176.9215,1
47.5032,188.9601,172.4504,377.6199,-667.0129,92.0775,667.0129,783.5306,-8.4907,49.1673,40.3709,105.7496,1
42.8211,150.8747,130.869,307.6125,-459.1844,112.2386,459.1844,616.7774,28.3132,53.7124,51.9778,117.4241,1
-60.2181,126.1562,129.2048,268.0968,-283.8434,157.6679,287.691,474.6471,8.2741,54.6212,47.5887,103.4012,1
-63.2489,173.4012,134.3598,423.7959,-94.4782,177.8365,152.4816,425.4373,-16.7254,61.1143,48.5036,128.9258,1
-91.3335,246.4224,209.3188,499.6323,-96.6759,247.2691,226.7841,510.7931,4.597,84.3915,64.1405,176.0665,1
8.3158,129.8948,100.5637,319.677,94.9033,94.4624,112.7133,277.8871,-1.5284,70.6938,59.1624,134.5084,1
32.8856,85.7356,72.9962,229.4247,119.4743,116.723,138.5932,346.7292,-20.8965,64.8415,56.2437,158.5055,1
30.7659,84.3828,66.9639,238.3032,223.4374,155.2466,225.6534,479.3932,-7.6538,57.8961,45.4081,131.521,1
63.4726,156.0142,128.0813,399.4832,297.731,145.2668,297.731,551.5755,-35.1387,70.4815,63.7423,169.4463,1
17.5502,127.2519,104.2002,290.4574,329.9793,131.314,329.9793,559.1598,5.2992,55.4345,47.6893,109.981,1
61.0542,149.8915,136.1075,324.5618,354.4241,119.199,354.4241,621.3226,-44.1364,83.7648,74.6838,185.1962,1
54.3919,103.351,93.3169,254.4689,397.8191,160.0723,397.8191,644.8093,6.5665,71.3091,56.8187,192.0261,1
47.01,265.8059,184.7911,658.3496,368.4421,123.4456,368.4421,652.1402,-22.3133,78.0627,65.1011,235.6459,1
13.6865,136.3038,107.564,398.5421,434.701,101.7409,434.701,592.4891,-3.8499,77.8869,70.4473,129.926,1
-25.9542,106.3567,91.2005,203.9813,341.2328,103.3823,341.2328,501.0569,-3.1166,44.8519,34.9258,107.342,1
18.2598,81.8847,71.7059,162.7228,400.638,122.8336,400.638,573.9165,-12.8755,55.8025,48.8052,106.3594,1
-37.1492,58.9733,58.6982,141.4775,300.7227,138.9828,300.7227,578.9097,-15.9315,52.598,44.4866,127.2716,1
-7.6751,186.0836,135.9851,407.5685,329.7446,186.6832,331.5378,742.3245,-16.9164,77.3916,69.0758,137.8531,1
43.9714,169.4177,145.6042,356.347,268.3969,107.4418,268.3969,515.4304,-19.4481,71.8471,63.9831,125.642,1
-24.4466,208.2288,182.1396,375.0793,233.8339,142.5964,233.8339,518.8101,-3.7717,44.2674,30.3008,108.0029,1
9.1877,102.3235,78.863,260.645,222.8584,85.857,222.8584,345.4305,-44.048,49.6295,57.6678,128.1366,1
-14.9369,154.9242,116.9029,324.0432,357.6534,134.5326,357.6534,558.9446,-12.205,59.3956,46.3477,129.2272,1
14.3015,167.2852,136.9207,335.049,474.7442,153.1557,474.7442,760.6364,-13.3874,74.8476,65.6314,129.9346,0
66.2701,108.935,103.6145,273.8492,469.9602,110.0359,469.9602,693.0349,-16.4933,45.7608,37.1297,137.3016,0
-31.4089,211.8419,178.4863,360.8427,399.763,153.1098,399.763,653.7258,-3.1234,75.539,60.4563,160.8234,0
44.3347,191.6004,166.4354,428.7041,349.7659,156.1382,349.7659,611.2151,4.4976,82.5047,68.5823,176.7888,0
-4.0929,45.7346,38.3059,84.9072,320.1486,136.2401,320.1486,519.4731,15.4868,68.1887,58.4161,138.4265,0
-28.3063,73.9263,65.6824,144.6759,86.4778,253.0722,214.5482,788.4473,-20.5871,62.5652,53.8074,149.4841,0
-81.3937,52.2031,86.3498,149.0406,-1911.1151,166.2973,1911.1151,2163.321,34.4546,101.855,83.1694,255.6394,0
-118.1824,48.6788,119.4399,190.72,-1510.5255,109.4152,1510.5255,1699.6743,103.2438,76.2274,112.5421,228.5162,0
-45.8704,58.6693,57.1701,148.7755,-1174.9192,85.106,1174.9192,1322.0432,173.0143,130.8566,181.3477,371.2507,0
-10.7109,83.6335,70.7061,183.9907,-913.8774,66.1968,913.8774,1028.3137,3.8751,129.9738,112.6082,232.6482,0
-149.9963,35.7043,149.9963,202.473,-710.8335,51.4899,710.8335,799.8445,11.8765,55.9693,45.0797,126.0194,0
-197.2915,74.6438,197.2915,301.2926,-552.9017,40.0498,552.9017,622.1363,-13.0489,52.354,45.2359,96.0492,0
-272.0335,55.7112,272.0335,380.6305,-430.0588,31.1524,430.0588,483.9111,-52.492,46.8388,60.4054,121.9224,0
-232.7787,53.5583,232.7787,323.2589,-129.5158,328.0651,339.5583,539.5074,-33.961,65.104,52.1809,173.0253,0
-30.3814,62.0547,57.1002,149.3075,1036.2708,251.6618,1036.2708,1452.8228,-87.043,49.6977,88.5408,168.3306,0
96.4722,33.8931,96.4722,154.1616,1708.8325,138.4248,1708.8325,1916.2992,-118.8427,49.1162,118.8427,208.7208,0
164.9678,24.2462,164.9678,214.8347,2130.5713,124.8719,2130.5713,2369.2759,-61.131,60.5696,68.1519,157.0198,0
204.9919,16.1649,204.9919,239.108,2199.6833,136.9915,2199.6833,2397.3394,-49.1042,60.4059,68.8511,148.7966,0
241.6273,20.275,241.6273,277.5681,1725.1656,124.9599,1725.1656,1941.1921,-8.7633,28.5478,25.8328,62.3978,0
225.8942,22.3588,225.8942,267.8191,1341.8695,97.1994,1341.8695,1509.8999,12.504,59.52,48.8477,125.8528,0
212.1186,30.4687,212.1186,263.7534,1043.7339,75.6039,1043.7339,1174.4314,42.2406,41.641,50.9346,107.6504,0
175.9161,33.228,175.9161,230.5511,811.8377,58.8067,811.8377,913.4971,38.7807,42.7116,45.5188,109.4081,0
154.2426,24.0915,154.2426,203.8242,631.4632,45.7423,631.4632,710.5364,51.6282,51.7581,59.6172,140.6608,0
117.1544,21.0257,117.1544,152.1844,491.1648,35.5781,491.1648,552.6692,22.3835,43.5743,39.6356,107.4554,0
87.4468,25.3746,87.4468,130.7003,382.0377,27.674,382.0377,429.8772,43.2294,38.3513,49.9878,92.2809,0
47.286,31.9114,47.3061,95.199,297.1566,21.5243,297.1566,334.3669,13.6457,31.8548,28.1498,68.7166,0
34.0578,30.607,36.0351,91.6029,231.0233,16.8271,231.0233,260.0774,30.3721,39.644,41.4026,92.8982,0
-3.0206,26.112,23.1665,42.9562,179.805,13.0245,179.805,202.3206,26.158,64.9792,57.8694,124.1405,0
-1.3154,20.6463,17.6297,39.0089,139.8552,10.1309,139.8552,157.3687,16.3651,35.5208,31.0644,78.363,0
-29.7417,21.441,31.2129,64.5594,49.7406,85.1028,94.2783,127.0203,5.5917,44.9928,40.0091,79.9087,0
-33.8685,24.0726,35.4617,78.1555,-222.817,80.5705,222.817,348.6553,16.824,32.52,29.626,76.2166,0
-38.3426,21.9273,39.2603,67.3765,-426.7039,51.6572,426.7039,517.6819,10.4972,35.7849,30.5585,66.2797,0
-40.0195,26.8679,40.4374,87.0687,-517.4872,34.2206,517.4872,570.2244,6.7935,38.7704,33.7396,70.3489,0
-44.3918,22.3285,44.9951,72.6838,-589.7907,29.8058,589.7907,635.3521,-5.308,40.1262,31.4296,82.8213,0
-24.5034,21.4629,27.298,62.6667,-592.0779,26.1636,592.0779,629.9395,-9.9453,41.1528,37.4852,71.9326,0
-31.7905,23.8415,32.9423,74.3435,-593.8687,29.3134,593.8687,643.989,-19.6169,35.6762,34.0337,82.4771,0
-23.0111,25.8585,27.3794,65.7218,-571.2615,29.1008,571.2615,625.6794,-20.1011,32.7405,32.2112,77.7292,0
-20.559,23.7597,26.6874,49.0178,-551.9454,23.1021,551.9454,594.5452,-24.0821,42.8111,41.3977,94.7135,0
-11.9857,25.1562,23.6583,55.5671,-513.1623,21.2946,513.1623,557.1104,-21.427,32.0269,29.794,93.4347,0
-17.2663,22.1788,23.6222,49.2498,-479.9235,25.3064,479.9235,527.2588,-33.9026,49.9041,49.8087,118.2109,0
-7.2499,25.0402,22.4045,47.0825,-437.7227,25.5624,437.7227,481.1914,-14.9417,35.6447,32.8233,70.2964,0
-12.317,20.5956,20.1661,44.5906,-403.4687,26.2731,403.4687,455.259,-8.481,48.5176,38.7038,105.1887,0
-12.7004,23.6333,22.4414,47.3153,-369.5594,19.496,369.5594,399.6443,-16.351,26.4915,26.5619,56.3164,0
-13.5785,21.1375,19.8634,49.1787,-338.7828,24.5325,338.7828,383.3293,-0.0638,43.8438,37.8849,78.0699,0
-13.9114,26.769,25.6768,53.3153,-306.4829,21.4257,306.4829,339.7998,-1.8673,40.9415,36.6877,65.9585,0
-13.625,20.8326,21.1738,39.8967,-264.1887,24.154,264.1887,307.2781,5.0298,35.0266,31.339,64.8242,0
-28.664,26.7719,33.077,65.4996,-239.6307,17.668,239.6307,268.8262,-6.7692,42.1486,36.3683,75.51,0
-26.499,25.289,31.5291,59.4133,-207.5555,23.6872,207.5555,248.0937,6.6073,39.0995,30.5175,68.7618,0
-29.4161,21.9252,31.8842,58.5436,-187.7935,23.7859,187.7935,228.411,-4.6682,39.2409,34.0721,76.5156,0
-34.5584,24.1973,35.3385,75.8557,-151.7655,29.0599,151.7655,212.4398,7.9349,43.1168,37.714,83.0667,0
-35.5938,19.6386,35.6115,61.5935,-141.6936,23.1614,141.6936,176.7563,-15.399,24.9473,25.3744,51.7953,1
-32.5888,21.0134,32.8853,72.9064,-106.6884,20.6933,106.6884,140.1217,-0.641,44.3892,39.9443,89.6342,1
-40.17,18.9662,40.17,64.0332,-90.871,17.6462,90.871,127.0449,-18.7811,38.7307,34.6617,92.8093,1
-39.7247,29.2338,39.9339,97.1849,-78.5708,19.8382,78.5708,111.3174,-13.352,37.4838,29.4327,107.017,1
-29.5001,20.9243,30.6604,67.9358,-68.6626,16.5849,68.6626,98.8077,-21.0949,52.1074,42.5521,136.302,1
-17.1356,32.1942,31.1271,60.6962,-48.3848,18.4362,48.3848,78.6221,-18.1265,56.1545,47.0023,130.7505,1
58.9793,134.4273,121.5133,301.8474,61.3232,200.8449,178.4425,408.2616,-69.0566,81.8811,75.9155,236.8431,1
-519.6102,271.0583,530.778,948.6066,-38.373,100.7319,90.4705,220.4939,-32.2717,122.2743,92.2205,323.8416,1
-102.7254,315.7159,287.4874,565.4744,209.0696,275.2475,262.6613,753.1335,66.3173,190.7263,166.1255,390.0961,1
301.0654,300.6908,377.5409,745.1201,397.7351,396.7147,467.0442,1083.7174,293.6541,238.5435,309.0965,765.562,1
937.2351,280.4376,937.2351,1309.9484,1683.9901,318.0103,1683.9901,2005.3203,-34.1743,126.8738,109.2252,240.4738,1
829.733,385.9223,829.733,1421.5889,1472.3622,106.6541,1472.3622,1656.7327,-64.0904,164.455,131.9747,448.3767,1
660.7761,165.3949,660.7761,911.7964,1145.2344,82.9562,1145.2344,1288.6416,-146.0388,193.2278,186.1294,425.1532,1
318.7924,498.6793,418.0058,1639.7761,890.7871,64.5253,890.7871,1002.3328,-77.5746,250.3867,195.6231,638.329,1
232.674,257.7975,270.7421,939.2371,692.8722,50.1881,692.8722,779.6348,-106.2593,157.3569,153.8005,387.1727,1
-72.7176,328.9109,283.4102,844.1907,538.9298,39.0373,538.9298,606.4155,-41.7436,198.067,164.9726,489.2183,1
57.0982,249.0438,212.3394,444.7722,419.1902,30.3643,419.1902,471.6819,-68.4838,109.8015,102.8778,275.2758,1
-69.9311,188.8945,158.7259,489.0159,326.0543,23.6187,326.0543,366.8835,-8.3325,158.5433,118.6514,390.6865,1
-242.5208,168.1663,267.3282,481.4949,253.6113,18.3705,253.6113,285.3691,-14.5009,80.9225,68.4362,163.9445,1
-350.2126,229.0475,360.8108,703.188,-244.3472,454.5179,414.1379,1107.3438,-66.482,153.5571,145.238,291.8237,1
-382.9854,262.1692,385.5337,917.937,-1148.7596,300.9868,1148.7596,1791.6841,-22.0193,159.035,145.0112,279.8629,1
-376.2902,243.0466,395.2613,724.2078,-1443.4133,213.8795,1443.4133,1856.5024,-4.6889,93.4991,77.1637,184.4294,1
-500.886,289.67,500.886,1030.7402,-1671.2593,133.7196,1671.2593,1926.8635,11.6068,74.4391,63.6243,126.0468,1
-387.7901,316.7599,421.9343,923.9611,-1794.9235,92.1671,1794.9235,1940.1375,47.4492,79.8348,78.0716,184.3727,1
-376.1539,353.1019,466.9203,870.2668,-1679.0269,165.253,1679.0269,1908.2826,37.5879,91.5851,75.5928,276.121,1
-278.5238,263.1464,348.1234,661.7646,-1500.7133,224.9888,1500.7133,1733.4181,40.4849,97.6253,87.8797,225.6008,1
-296.0431,226.1672,322.5917,674.3833,-1271.165,104.4022,1271.165,1461.4791,79.4461,126.7544,114.4486,358.1125,1
-277.5411,421.8144,410.8686,1057.8275,-993.8591,106.3721,993.8591,1132.5286,42.5197,93.349,87.1889,205.3292,1
-180.6595,159.5336,197.7788,468.4906,-783.8121,80.4851,783.8121,895.2236,42.2176,97.2012,85.6066,189.3838,1
-158.3798,227.4296,226.2133,530.46,-621.4521,45.0159,621.4521,699.2707,70.6897,78.2902,87.4765,222.8542,1
4.926,161.0038,132.4773,324.14,-425.322,96.4784,425.322,543.9078,47.3626,129.597,110.0192,327.5568,1
-33.199,229.9265,195.4275,490.597,-234.6263,172.5901,260.259,408.8033,14.983,92.2959,78.6589,227.2754,1
20.4001,184.1206,141.0759,430.2629,2.5254,178.9718,152.2126,328.431,61.9485,117.6866,116.3177,256.7014,1
124.6099,147.2294,146.5414,512.9075,195.6597,117.9103,195.6597,457.5859,5.7557,87.5651,72.2502,191.65,1
14.1256,110.6494,91.0576,201.7101,231.1352,122.1603,231.1352,427.2679,35.5528,96.3687,85.7876,216.4683,1
78.9849,193.8387,168.2371,483.3539,354.0685,123.3119,354.0685,631.2831,27.4288,117.8256,96.0877,277.3481,1
113.0891,233.4495,204.942,621.9519,393.9029,157.0426,393.9029,866.9551,-8.0378,44.2393,39.2355,102.7468,1
-30.0008,251.3776,201.1196,574.1523,334.5209,257.1149,334.7443,1080.0455,17.004,61.2253,50.3102,155.3276,1
123.8288,122.9045,146.1639,351.5857,439.8198,170.2114,439.8198,691.3879,-19.8641,76.8968,64.6471,146.6322,1
46.5274,142.2895,134.6225,251.5073,368.6516,127.242,368.6516,643.3229,-4.4801,103.7155,71.4954,268.7753,1
39.7579,212.3149,185.8211,442.6708,438.508,186.1621,438.508,748.7536,24.624,30.0491,31.9074,90.433,1
96.7626,84.1004,102.7095,296.22,409.315,171.4773,409.315,653.6287,-16.5518,80.706,62.9917,225.4192,1
22.8473,78.2172,75.1155,143.3048,386.5429,118.7694,386.5429,622.6105,1.9313,95.9159,77.9163,201.851,1
31.5973,137.4285,112.7233,279.4161,435.3133,169.6775,435.3133,750.683,-23.2792,134.2528,115.4835,328.1884,1
21.7856,209.4774,175.1396,488.9242,355.8366,110.1118,355.8366,537.2557,0.9852,73.6893,57.485,147.5991,1
-21.859,62.4887,56.2703,105.1462,229.4876,84.8355,229.4876,407.1891,-1.1922,93.2147,80.2822,192.8285,1
40.3626,190.8801,136.9611,468.4791,118.8013,170.8762,159.3191,433.4249,-4.9269,55.7249,46.3001,112.7224,1
-25.1829,88.3655,78.8041,182.3265,-302.9317,177.8382,302.9317,742.6298,33.2682,28.9011,39.899,78.5461,1
-2.2132,99.7166,85.697,175.3212,-1240.3782,183.086,1240.3782,1440.7543,32.4299,116.9492,105.2285,197.1558,1
-183.6092,52.6419,183.6092,259.7939,-1036.7914,75.0983,1036.7914,1166.6189,241.2577,202.9128,246.3481,627.7002,1
-102.5552,43.4507,102.5552,165.5975,-806.4384,58.4162,806.4384,907.4213,415.7154,222.0811,434.1776,668.1772,0
-623.6987,350.4883,623.6987,1321.2134,-627.2651,45.4365,627.2651,705.8117,256.6288,131.5923,256.6288,555.2095,0
-1285.5096,85.431,1285.5096,1409.844,-487.9003,35.3417,487.9003,548.9955,159.683,58.2854,159.683,262.8723,0
-1004.4024,72.7564,1004.4024,1130.1743,-379.4994,27.4891,379.4994,427.0205,17.7915,50.465,42.949,116.5095,0
-781.2459,56.5897,781.2459,879.0739,-295.1828,21.3815,295.1828,332.1458,-35.332,41.4549,47.5399,92.8145,0
-605.4919,48.5607,605.4919,683.7626,-229.5996,16.6308,229.5996,258.3502,-100.6703,43.7996,100.6703,163.8818,0
-166.1396,160.2901,194.7411,422.4998,590.8262,354.532,620.2039,1054.8213,-128.9086,41.1281,128.9086,202.5535,0
362.8834,143.0253,362.8834,574.5497,1379.4448,166.4815,1379.4448,1647.4766,-151.4509,55.1054,151.4509,255.7913,0
751.9858,79.2396,751.9858,882.139,1810.4634,98.1917,1810.4634,1967.9799,-163.4007,31.7862,163.4007,244.4043,0
912.1717,39.454,912.1717,974.3246,2128.3628,87.8767,2128.3628,2325.8232,-167.8916,47.1111,167.8916,253.0435,0
955.9255,29.7541,955.9255,1019.1735,2111.2107,152.4923,2111.2107,2369.8848,-151.0392,56.8153,151.0392,238.4215,0
958.7919,25.2505,958.7919,998.4694,1642.3636,118.966,1642.3636,1848.0217,-138.9961,47.1167,138.9961,209.0387,0
858.9765,56.8226,858.9765,951.6124,1277.4647,92.5359,1277.4647,1437.4302,-118.1284,39.0509,118.1284,199.8519,0
670.7043,50.553,670.7043,742.6443,993.6386,71.9731,993.6386,1118.063,-120.3255,46.6353,120.3255,201.9562,0
530.9244,53.7203,530.9244,646.5923,772.873,55.9836,772.873,869.6531,-65.5996,50.2556,65.8758,178.6664,0
414.1381,36.4522,414.1381,473.8379,601.1563,43.5452,601.1563,676.4341,-60.5744,48.1486,64.388,130.9869,0
323.5939,24.6204,323.5939,370.1169,467.5913,33.8705,467.5913,526.1436,-42.3822,55.2165,55.9286,134.4893,0
280.8059,18.5458,280.8059,316.0454,363.7021,26.3451,363.7021,409.2454,-36.8168,33.1353,41.5666,109.9032,0
223.7584,26.5042,223.7584,307.1248,282.8944,20.4915,282.8944,318.3193,-20.2526,50.3345,46.5956,101.6621,0
152.5924,29.6268,152.5924,193.2817,220.0402,15.939,220.0402,247.5942,-9.2365,39.5018,34.363,76.131,0
99.0212,21.079,99.0212,137.7966,168.6609,18.8496,168.6609,192.5833,-3.88,31.3295,27.2531,55.3175,0
72.3788,16.0317,72.3788,98.9497,-38.9556,93.9761,90.4021,169.0991,5.7339,53.0992,46.9394,103.1942,0
60.1984,27.5324,60.7822,115.7356,-285.262,64.9722,285.262,430.1914,10.3318,44.5092,38.5016,83.2712,0
-8.2737,27.1531,23.3749,54.1904,-435.5431,38.2601,435.5431,499.5425,15.8597,37.2411,32.2813,94.5442,0
-57.4858,26.5292,59.37,105.6929,-515.1311,32.2002,515.1311,575.124,13.4771,40.7827,36.4286,73.2488,0
-97.3912,23.8971,97.3912,138.896,-560.3712,33.9432,560.3712,629.8479,13.2688,47.3232,43.8445,85.0192,0
-142.9449,21.7144,142.9449,183.0027,-565.012,29.559,565.012,612.5051,23.9394,44.7618,44.3178,93.4343,0
-160.6575,20.6332,160.6575,197.6448,-557.8246,20.0651,557.8246,590.1492,27.1831,53.3797,49.9481,130.4824,0
-183.9384,20.3647,183.9384,216.0166,-545.252,18.7955,545.252,575.1902,13.2966,40.0492,33.0978,97.2279,0
-195.5864,17.2804,195.5864,229.6826,-522.2707,22.9022,522.2707,556.1924,27.1262,37.1529,36.5403,82.2917,0
-187.4311,23.5353,187.4311,227.5598,-490.3216,24.0725,490.3216,524.696,13.9546,49.6911,42.8908,101.3667,0
-178.9705,21.755,178.9705,217.0715,-454.4622,27.709,454.4622,501.2336,17.2749,43.8414,42.5626,82.4348,0
-166.7802,19.3667,166.7802,198.1143,-423.1449,23.9089,423.1449,460.3889,2.8381,50.5958,39.6529,111.2561,0
-157.2283,22.3785,157.2283,187.2297,-380.5834,27.2574,380.5834,420.2395,37.219,34.6603,42.8313,94.5181,0
-140.8714,14.7124,140.8714,166.0066,-355.9191,19.7128,355.9191,382.5708,8.9809,39.7972,34.07,83.6685,0
-58.238,28.3766,58.238,141.2516,-313.2382,20.8252,313.2382,349.1233,16.0025,31.6286,28.1985,67.2203,0
-70.8369,19.8966,70.8369,101.454,-286.7785,18.1318,286.7785,318.6899,5.6744,44.0804,37.0063,82.8497,0
-79.1511,17.5457,79.1511,121.5734,-245.2151,21.3679,245.2151,279.4346,10.8358,54.7245,49.6116,94.1541,0
-85.7332,23.3086,85.7332,123.7212,-222.8524,28.3131,222.8524,262.6543,13.2379,38.8273,32.4096,85.5297,0
-83.6112,23.1227,83.6112,125.2709,-189.5818,28.5215,189.5818,231.9121,0.871,50.6729,45.4417,86.6884,0
-82.5177,17.0394,82.5177,110.635,-172.0559,21.273,172.0559,215.2646,11.2113,41.7175,34.9911,91.144,0
-65.8127,25.2578,65.8127,111.9515,-143.3817,26.1985,143.3817,187.9829,11.3096,38.6935,34.6082,70.6509,0
-75.1775,18.6854,75.1775,104.3409,-138.4684,25.544,138.4684,179.3444,10.4291,50.0793,43.8293,97.973,0
-43.9203,16.886,43.9203,78.7834,-102.9517,23.1259,102.9517,146.7881,17.393,50.9465,46.929,97.3513,0
-44.8556,22.9186,45.8628,76.0182,-94.2514,21.9452,94.2514,125.6018,-1.8734,38.9023,33.0585,70.3516,0
-41.4956,19.6965,41.4956,77.1942,-69.4303,16.4491,69.4303,100.1787,3.1387,43.493,36.83,90.3525,0
-32.419,20.9094,33.284,69.244,-56.6619,24.4798,56.6619,94.5828,-8.4931,55.1818,49.1334,100.3824,0
-17.1128,22.0423,23.8101,54.2775,-36.4704,22.1035,37.0208,71.8542,-0.1081,55.6111,47.334,93.7952,0
-20.5427,24.3477,26.7965,58.9799,-36.1286,22.3079,36.1286,75.2609,1.4806,57.3781,48.5656,110.329,0
-4.1737,21.085,17.9637,44.7228,-20.4799,25.9895,26.4991,60.8745,-0.7152,36.5137,29.2785,74.7535,0
-0.011,23.24,20.1808,44.7113,-18.0935,25.4657,27.0431,52.9141,-9.5979,45.4633,40.7575,76.7559,1
3.7978,20.6239,17.4664,42.0295,-4.0557,20.1189,17.6479,38.2012,7.2921,39.5229,32.3812,89.3188,1
9.3466,24.8469,20.9256,58.9548,-6.0885,27.4809,24.1173,48.6434,-3.3269,30.5094,25.174,65.0724,1
15.6125,16.4439,18.5182,54.0104,1.2636,20.6169,17.0959,46.9171,-4.1792,50.9703,42.3235,110.0076,1
32.4219,23.2222,33.4489,67.9712,12.526,26.167,22.8507,78.9191,-9.7213,41.132,30.495,119.1533,1
33.9409,62.8345,59.9166,137.0829,3.4607,64.1964,52.8857,130.2422,10.9059,73.0021,55.2913,166.3024,1
61.8491,92.0861,79.9581,246.8875,6.1693,136.0983,110.3514,288.7882,-11.9451,39.9375,30.1011,94.6736,1
-252.1844,133.3748,252.1844,454.0389,-68.1679,80.1746,91.1058,204.1222,-85.1011,207.4428,158.4029,515.6289,1
-64.5582,115.5246,113.7791,218.6995,81.0924,146.4861,139.7288,329.5781,-254.9166,117.3978,254.9166,459.083,1
257.7302,119.2053,257.7302,589.0122,125.8496,248.024,214.5882,615.78,-58.8537,75.2747,77.654,171.63,1
1091.8018,412.6617,1091.8018,1911.4098,781.9504,317.497,781.9504,1490.9783,-74.5701,241.2733,199.1216,522.6443,1
1705.967,108.7518,1705.967,1898.5283,1709.4186,94.0804,1709.4186,1886.4958,-100.4093,202.8222,186.1802,465.5391,1
1380.0125,99.9644,1380.0125,1552.8191,1383.7488,97.6509,1383.7488,1543.4133,-48.2357,144.0535,124.5254,292.8495,1
1073.4025,77.7522,1073.4025,1207.8149,1077.6772,78.0625,1077.6772,1212.6252,-86.2011,100.0291,111.2215,248.7028,1
834.9144,60.4785,834.9144,939.4639,838.2402,60.7174,838.2402,943.2051,52.0109,143.3055,101.7533,420.099,1
179.6001,341.9199,304.5616,730.7336,652.0007,47.2275,652.0007,733.645,-26.2565,171.6906,139.7654,394.5833,1
-457.3513,342.1533,476.0701,1063.8516,507.1388,36.7363,507.1388,570.6438,-40.8469,64.197,58.9813,170.2732,1
-699.1764,210.5426,699.1764,1027.5139,394.4621,28.574,394.4621,443.8577,-16.0283,101.9767,80.5411,235.2675,1
-953.7053,185.8707,953.7053,1195.6787,306.8204,22.2253,306.8204,345.2412,25.3884,91.5063,80.3291,172.1095,1
-923.4669,404.6154,923.4669,1571.752,238.6508,17.2872,238.6508,268.5352,70.1773,78.9013,85.3782,208.6693,1
-904.1511,157.2512,904.1511,1179.8364,185.6273,13.4463,185.6273,208.8721,67.7937,81.9935,89.1925,226.9661,1
-942.3571,207.8814,942.3571,1308.8474,-1026.5422,329.3223,1026.5422,1460.6682,116.7494,64.0494,116.7494,245.0206,1
-783.64,112.0603,783.64,988.6138,-1590.7678,146.1882,1590.7678,1844.0208,117.2134,64.2711,117.2134,237.178,1
-720.5225,138.9125,720.5225,902.8945,-2007.7887,199.1483,2007.7887,2288.4343,111.5104,32.3579,111.5104,174.6052,1
-616.8666,139.2246,616.8666,847.464,-2079.7209,168.6602,2079.7209,2347.7124,126.5442,64.714,126.5442,235.1445,1
-459.1397,142.3503,459.1397,687.8335,-1912.9552,122.0826,1912.9552,2153.7292,79.5208,112.1608,117.2647,254.2692,1
-353.6713,81.3476,353.6713,464.1047,-1543.8278,111.8273,1543.8278,1737.1466,115.7757,80.4075,116.2539,246.9794,1
-282.0027,117.1636,283.1365,469.1339,-1200.8225,86.9816,1200.8225,1351.1901,82.5319,38.1289,82.5319,157.785,1
-156.3717,169.7325,188.1093,455.0247,-934.0256,67.6576,934.0256,1050.9849,66.5735,103.6957,99.6563,283.1575,1
-133.0374,118.9206,148.523,348.9515,-726.5053,52.6264,726.5053,817.4788,42.0725,59.0455,54.2194,160.9519,1
13.5746,165.1877,125.8796,416.4485,-565.0916,40.9337,565.0916,635.8527,40.902,67.0113,60.4076,184.317,1
6.9052,159.3933,131.4037,312.3534,-439.5404,31.838,439.5404,494.5799,17.2444,81.2249,66.3492,226.8634,1
41.7568,81.9133,76.719,204.5748,-341.884,24.7653,341.884,384.6949,27.6923,64.6596,56.0424,210.7347,1
138.3859,99.1204,139.4267,348.455,-243.5033,58.8617,243.5033,299.224,-16.1719,73.0301,62.3505,148.7465,1
109.0615,102.9203,124.1695,272.8341,-86.3601,125.2788,124.1499,240.0832,6.1408,56.303,47.6537,113.1964,1
157.1301,139.6169,171.6449,404.6565,8.2961,135.3255,102.541,357.8721,-28.9701,94.0337,84.9073,180.6968,1
144.6422,74.0749,144.6422,340.0934,61.5445,139.0412,121.963,342.1516,-17.6739,74.1078,58.8045,168.6071,1
162.2539,83.5369,162.2539,267.2557,84.3422,130.4821,131.6745,302.274,-5.8638,40.2395,34.1951,71.1981,1
172.9622,80.0368,172.9622,346.3889,238.7568,108.9225,238.7568,390.6443,-42.8544,41.4606,47.4902,139.9276,1
143.6987,51.0129,143.6987,332.943,225.5634,138.2963,230.5719,466.796,-18.2964,79.179,62.8177,205.507,1
154.9512,174.3611,173.3068,542.3256,341.9753,138.5907,341.9753,664.9886,-28.4358,45.6154,39.9209,143.7175,1
120.2584,140.6797,133.4401,416.5377,341.1133,203.7245,341.1133,681.342,-24.3526,90.7442,76.7055,201.8173,1
173.8891,196.3767,207.0506,627.046,366.9752,212.7617,366.9752,827.089,-14.1603,46.2574,38.4888,113.1526,1
113.9114,116.2171,133.7828,270.4283,364.2812,120.8642,364.2812,572.7678,-26.4011,54.7586,49.5289,142.071,1
100.6457,154.242,148.684,377.1398,375.4644,122.6361,375.4644,533.23,-15.2403,69.1864,60.9851,115.8888,1
124.902,135.6942,147.0515,403.8835,381.8669,122.4499,381.8669,570.5455,-23.6065,61.3865,58.0737,110.0054,1
60.3398,123.2088,112.4282,294.6317,329.3546,148.4501,329.3546,616.5646,-16.6118,60.4669,53.756,127.151,1
72.392,70.9354,87.4515,172.7655,429.4642,162.1125,429.4642,723.0552,-1.9598,71.8881,57.0605,160.98,1
62.6359,104.6261,94.8272,263.355,340.0005,132.5208,340.0005,528.9471,-25.1595,76.2452,69.2636,131.005,1
22.3774,77.5147,63.1061,195.9249,296.8297,133.1505,296.8297,564.118,5.6672,49.2387,40.6197,90.3252,1
67.9104,109.7817,90.8837,371.1647,323.7312,108.2182,323.7312,521.712,-18.0369,57.8068,42.6201,146.479,0
21.6919,121.0149,103.9829,245.9552,259.3179,149.4818,259.3179,545.059,-17.7244,52.6519,45.4192,110.0731,0
-25.9204,80.1303,69.8685,169.3206,218.7803,178.1036,226.6083,523.4386,-19.0639,62.6086,56.2581,118.9241,0
37.6147,120.4696,106.6099,277.6083,238.1047,134.6131,241.2888,434.2388,-18.283,62.2865,58.2098,124.4497,0
-21.7762,49.8322,44.568,121.4049,157.0733,127.9748,163.6819,351.3468,-21.3007,66.4547,48.5225,188.2617,0
-14.5346,85.6668,75.0968,178.0076,-150.2666,508.0746,320.4789,1555.8655,37.4247,76.0873,76.5804,138.77,0
-224.7825,180.1041,224.7825,512.9883,-1355.2042,98.1645,1355.2042,1524.9038,23.1,49.8523,48.4519,105.1564,0
-687.3091,240.2151,687.3091,1033.778,-1054.1071,76.3557,1054.1071,1186.103,199.5766,106.0805,199.5766,352.8053,0
-821.9736,132.8552,821.9736,1029.3612,-819.907,59.3917,819.907,922.5764,371.8508,59.3115,371.8508,459.5447,0
-365.1124,123.314,365.1124,587.7601,-637.7414,46.1957,637.7414,717.5997,298.2588,89.487,298.2588,497.7351,0
-208.5054,41.2522,208.5054,276.3009,-496.049,35.9318,496.049,558.1646,-16.0158,108.608,82.4223,226.5273,0
-83.082,30.622,83.082,159.2365,-385.8376,27.9472,385.8376,434.1523,-60.7087,87.8289,91.2803,212.509,0
-874.2957,246.7477,874.2957,1099.9585,-300.1127,21.7392,300.1127,337.693,21.7867,121.1203,106.8093,203.3977,0
-876.8068,54.0929,876.8068,949.4923,-233.4341,16.9096,233.4341,262.6649,-0.172,97.0105,83.8033,185.4065,0
-690.3722,50.0061,690.3722,776.8208,636.4129,464.5641,700.8168,1205.9196,-59.7198,101.3543,87.6669,302.3044,0
-536.9862,38.8969,536.9862,604.228,1636.1667,207.7568,1636.1667,1956.7461,-45.6576,70.3779,65.7292,162.2019,0
-321.5171,147.8967,321.5171,469.9815,2214.2397,159.6069,2214.2397,2466.5942,-89.4189,53.2454,89.4189,190.7664,0
194.6776,133.7685,198.3793,428.3012,2414.9712,159.3146,2414.9712,2649.9683,-115.9181,49.7096,115.9181,195.597,0
606.9818,95.2963,606.9818,732.0228,1887.8921,136.7523,1887.8921,2124.2952,-127.3,51.4042,127.3,229.5854,0
849.0937,49.2281,849.0937,933.2459,1468.4425,106.3725,1468.4425,1652.3223,-150.7356,52.0694,150.7356,232.2454,0
950.2798,23.7282,950.2798,993.3019,1142.1858,82.7337,1142.1858,1285.2114,-139.0933,64.8422,139.0933,229.6084,0
972.7719,18.1036,972.7719,1003.436,888.4155,64.3532,888.4155,999.6638,-130.5487,37.6236,130.5487,209.3811,0
913.9253,36.3128,913.9253,976.9136,691.0281,50.0555,691.0281,777.5593,-103.8376,50.2076,103.8376,197.915,0
840.1287,33.7743,840.1287,894.172,537.4957,38.9334,537.4957,604.8018,-90.1759,56.2452,93.0922,180.5247,0
736.6682,27.9894,736.6682,786.3142,418.075,30.2844,418.075,470.427,-67.9532,50.3939,70.5829,153.3292,0
639.5733,45.1929,639.5733,722.5159,325.1866,23.5557,325.1866,365.9075,-41.0398,26.9917,43.2342,77.3922,0
513.8617,42.2367,513.8617,582.6199,252.9359,18.3217,252.9359,284.6094,-30.0735,36.1771,36.2393,105.0216,0
393.0391,32.7211,393.0391,468.0132,196.738,14.2507,196.738,221.374,-9.0986,63.3984,56.3585,124.89,0
287.2758,40.257,287.2758,340.282,153.0265,11.0848,153.0265,172.189,2.4866,39.0154,33.9843,94.9312,0
202.552,25.4808,202.552,257.8088,119.0267,8.6219,119.0267,133.9316,4.7064,33.403,26.1177,78.3851,0
118.9573,41.7169,118.9573,190.0256,92.5813,6.7062,92.5813,104.1743,-0.5493,41.5946,35.0526,71.8679,0
58.0715,20.7469,58.0715,97.8667,53.4575,48.098,69.9319,109.6533,9.6981,49.9594,43.3452,106.0317,0
2.6679,26.5263,21.999,58.4585,-240.152,90.6028,240.152,374.1384,12.0695,47.4167,44.0472,96.9336,0
-42.0093,21.5713,42.0421,72.0479,-465.7752,56.897,465.7752,574.3904,20.1743,43.3026,40.8645,91.2766,0
-87.6079,28.1664,87.6079,131.7527,-586.832,35.5073,586.832,638.0615,11.9854,41.0315,32.4877,99.9052,0
-112.9507,21.2176,112.9507,145.179,-628.9013,33.1638,628.9013,701.3887,28.5533,37.5406,38.5094,104.5524,0
-137.9519,21.5664,137.9519,178.5305,-642.7108,29.1775,642.7108,696.3547,23.7522,47.0352,44.8137,104.6019,0
-154.987,20.7515,154.987,190.2288,-630.0803,22.7292,630.0803,668.1025,30.8346,57.9129,54.4823,125.3359,0
-145.2696,21.7458,145.2696,173.6064,-602.1754,27.4344,602.1754,654.3682,41.0941,66.3362,59.8485,178.3732,0
-134.9308,21.6444,134.9308,169.6023,-567.6349,22.17,567.6349,602.9553,4.5759,52.1502,42.0083,95.6199,0
-166.9219,19.4716,166.9219,202.2124,-526.7991,27.9372,526.7991,593.5779,53.3783,51.0663,60.7177,135.4479,0
-181.7643,21.9263,181.7643,213.7988,-498.6986,25.465,498.6986,531.8164,14.6328,33.0699,29.096,72.4847,0
-178.2175,21.4988,178.2175,215.8171,-448.1126,18.9771,448.1126,481.2549,42.352,25.4659,42.352,87.3545,0
-172.9862,22.8408,172.9862,209.9565,-413.8368,23.6148,413.8368,451.4712,8.9914,54.9035,48.5153,118.6639,0
-166.6017,15.9167,166.6017,196.8757,-362.9758,36.3629,362.9758,417.5605,22.8659,40.303,37.7448,98.2778,0
-145.5085,23.9759,145.5085,185.9135,-322.2592,23.9834,322.2592,352.814,5.2967,45.5258,38.5004,87.156,0
-113.4097,17.8613,113.4097,152.5088,-279.8476,19.1693,279.8476,314.7893,19.7996,51.9465,48.9009,112.1045,0
-110.0145,26.4437,110.0145,148.63,-259.6088,30.8532,259.6088,315.1765,-1.1652,51.0085,42.3091,104.1833,0
-103.7329,20.0509,103.7329,139.2238,-216.6315,19.2594,216.6315,248.178,33.6299,46.8181,46.1769,120.3722,0
-91.4622,23.5068,91.4622,136.1478,-190.0249,21.808,190.0249,223.218,3.2467,43.642,34.0364,119.351,0
-83.0602,18.334,83.0602,108.6761,-152.8177,22.9137,152.8177,189.3561,11.931,39.2888,36.6105,64.2505,1
-77.6141,19.5677,77.6141,110.2678,-128.4167,23.8093,128.4167,171.4905,-6.9387,79.4097,70.2919,127.2365,1
-61.4879,24.7926,61.4879,104.9679,-106.1794,23.7574,106.1794,143.4803,8.5727,43.0184,34.916,97.9034,1
-55.0013,15.9854,55.0013,79.7799,-94.5209,30.2424,94.5209,153.4692,14.8031,74.0018,54.5039,165.7455,1
-37.6884,18.3226,37.6884,66.1477,-66.3292,21.7198,66.3292,114.3165,7.1038,59.2541,50.3249,111.2939,1
-34.6885,28.7962,35.4493,103.8934,-47.874,77.8413,75.6434,187.9078,-16.323,54.4795,44.133,111.0088,1
-20.52,49.0445,42.5235,110.1802,-28.6073,42.0963,39.8889,96.4839,-3.3188,60.0265,49.5964,122.8757,1
-137.3574,85.5901,138.4747,301.207,-87.3858,59.2664,93.7019,183.1681,20.2471,69.5835,60.3571,143.5876,1
-139.1613,128.6607,173.1616,288.2949,-44.0372,97.5827,94.6046,173.2539,-8.9057,165.5155,139.8561,364.0322,1
-100.4057,203.0721,189.7753,464.1366,-14.7625,152.6913,119.6425,304.754,-245.6837,186.2635,260.8069,504.2844,1
14.3616,166.9505,137.6227,395.9529,146.6951,118.9369,166.0649,315.7928,-118.5111,141.9673,143.3954,447.55,1
696.3088,387.9859,696.3088,1475.826,518.719,285.3289,518.719,976.6449,-96.267,150.6562,139.1741,386.4015,1
1644.9858,243.8516,1644.9858,1938.4052,1726.5203,228.1157,1726.5203,1996.7534,-62.3695,308.6371,270.9678,681.5739,1
1558.548,112.8925,1558.548,1753.7109,1451.4113,105.1338,1451.4113,1633.158,-17.3834,175.3264,150.4601,311.6394,1
1212.271,87.8103,1212.271,1364.073,1128.9382,81.7769,1128.9382,1270.3049,-24.5869,67.4645,61.0448,134.5345,1
942.9299,68.3019,942.9299,1061.0042,878.1121,63.605,878.1121,988.0701,12.7512,116.9461,96.7549,217.7292,1
733.4306,53.1283,733.4306,825.2717,683.0131,49.4764,683.0131,768.5413,17.3227,113.9856,92.3243,227.1334,1
216.9595,339.2013,337.5056,641.9136,531.2615,38.4829,531.2615,597.7869,-134.6133,115.6319,143.0237,317.8378,1
-439.5845,347.3785,461.214,1070.1121,413.2257,29.9314,413.2257,464.9705,-54.7228,71.3884,66.639,196.4005,1
-651.3359,342.111,651.3359,1320.426,321.4149,23.2826,321.4149,361.6631,-37.7566,95.1864,88.0867,191.2942,1
-927.033,215.4851,927.033,1295.4006,250.0029,18.1089,250.0029,281.3088,45.1887,112.1955,103.1125,227.8206,1
-1064.4969,220.5686,1064.4969,1482.2095,194.457,14.0855,194.457,218.8074,76.3991,93.3861,97.0956,247.3525,1
-1021.7469,334.3577,1021.7469,1568.7678,-79.6859,260.3672,235.5156,580.9675,73.5661,67.2821,80.862,214.2521,1
-946.4478,192.9596,946.4478,1235.4678,-924.2491,258.5291,924.2491,1276.8347,103.1568,144.4527,134.5081,401.1744,1
-822.5361,200.398,822.5361,1184.6477,-1100.917,198.2146,1100.917,1478.5637,85.0089,91.1819,110.75,191.2721,1
-808.902,244.1676,808.902,1171.2451,-1412.5344,166.0196,1412.5344,1646.6531,80.8829,92.9,90.6568,347.6376,1
-577.8561,196.8007,578.2294,811.078,-1482.1898,228.7796,1482.1898,1806.5393,88.0425,141.8199,143.5177,321.1986,1
-408.857,192.4227,408.857,770.2972,-1316.1455,232.2606,1316.1455,1731.2007,55.2634,62.9738,70.8351,171.1013,1
-491.6112,125.9268,491.6112,681.3894,-1356.6385,142.1182,1356.6385,1683.1118,87.636,89.4956,102.8474,247.6117,1
-259.8036,187.2316,259.8036,640.0811,-1121.0964,175.1215,1121.0964,1438.868,40.364,96.3959,83.1916,237.7775,1
-243.9765,210.9621,260.4182,622.7903,-1212.3719,196.9308,1212.3719,1462.2003,42.3314,87.5012,75.4469,229.4597,1
-114.0916,187.3245,183.3536,442.4761,-1118.6255,111.3868,1118.6255,1342.8073,59.0876,102.2436,94.811,256.0895,1
-132.9469,197.8958,176.6605,526.0055,-874.3675,135.3968,874.3675,1073.5137,51.1271,98.6368,93.4719,251.6489,1
-14.263,60.5174,52.9318,109.3112,-636.5452,170.5767,636.5452,868.3198,8.0178,60.5887,44.2732,158.8373,1
35.4838,160.921,140.8923,278.9398,-522.6284,144.233,522.6284,708.4489,44.2856,67.7771,68.7961,141.6265,1
123.8759,227.9424,207.3857,569.3026,-403.3125,146.601,403.3125,594.3667,7.0627,88.2695,71.8561,164.7274,1
79.5979,149.3818,127.3526,526.1686,-334.5046,128.8766,334.5046,475.5626,1.41,104.1649,91.8071,178.2563,1
141.7516,351.4899,323.1938,734.3259,-129.8648,278.0827,254.5236,521.2809,-8.4992,99.4768,79.3628,224.7886,1
166.7365,142.7572,183.452,461.8883,-167.8957,148.0063,191.9607,369.1439,-12.0096,41.897,34.5465,95.5028,1
121.2282,222.6199,208.8782,477.4001,-13.4994,243.038,213.2975,392.9184,-3.3691,35.164,28.5897,66.7833,1
190.8945,221.095,221.5932,638.5902,57.7351,212.0826,164.8157,581.8155,-38.1198,56.1451,55.5591,143.5752,1
121.3081,169.8332,177.2725,409.6089,120.691,178.7711,175.3334,444.091,-13.0578,75.1499,61.3999,152.3971,1
166.4085,191.6069,199.8507,596.1095,245.1828,161.6314,245.1828,541.1298,-29.4115,72.2487,67.0121,158.2048,1
149.815,198.2328,200.3914,522.1793,309.4042,131.4962,310.2231,556.3989,-56.6136,58.8649,60.5519,204.5791,1
93.1604,191.8318,181.7719,462.8492,268.4652,167.0277,274.6855,584.4686,-5.8329,51.3104,44.2099,104.1458,1
176.265,104.2744,182.4349,317.1802,399.9914,144.1826,399.9914,722.3787,-30.6794,34.4648,36.3928,111.8198,1
101.1592,305.0297,276.7278,599.3184,310.2464,143.5665,310.2464,500.6661,-26.6138,103.2159,92.0744,192.5115,1
70.8886,196.1841,177.657,417.1614,379.8917,104.6784,379.8917,506.1143,36.5851,71.81,62.8458,185.4677,1
135.9361,127.8403,148.4429,383.778,336.4874,165.5024,336.4874,670.6802,-14.1883,58.5537,52.1202,102.9434,1
31.6508,206.8985,173.3082,478.9202,260.7787,94.3042,260.7787,408.4816,21.1723,82.2907,62.989,181.2544,1
79.5,156.8461,136.2542,365.579,238.7148,134.8317,238.7148,470.1587,15.256,63.7907,56.3332,115.4952,0
91.6449,127.9677,138.7804,390.934,231.2005,137.1036,242.6199,423.3103,4.5606,80.1438,67.6551,177.1803,0
13.7648,138.8628,111.3049,391.9746,214.9303,69.8516,214.9303,360.4647,5.8454,60.6223,51.5244,104.4019,0
77.4895,146.9607,127.7831,398.3693,261.2699,149.6357,261.9403,545.4318,19.7008,90.9424,77.2936,181.861,0
-12.0858,50.4174,45.0028,94.656,166.5437,121.5476,172.5881,355.6964,-1.1797,46.9135,39.6723,82.9241,0
-160.2385,204.2035,223.2733,410.718,-442.8154,693.8224,657.9543,1282.7113,10.1891,58.2083,49.1233,109.9559,0
-754.7507,207.3758,754.7507,959.4653,-1041.3772,75.4306,1041.3772,1171.7788,54.8724,62.7717,65.967,181.3273,0
-694.2221,116.7582,694.2221,864.3826,-810.0056,58.672,810.0056,911.4349,174.3762,110.9132,191.1391,321.0426,0
-385.6355,118.8436,385.6355,582.4326,-630.0399,45.6375,630.0399,708.9337,327.9954,79.381,327.9954,482.1392,0
-39.0861,90.7865,92.943,148.6412,-490.0586,35.4984,490.0586,551.424,206.4557,142.7276,217.6026,415.6401,0
165.7598,54.7202,165.7598,292.3718,-381.1782,27.6111,381.1782,428.9095,149.6993,111.5536,157.7907,383.0063,0
167.522,152.2593,206.0258,310.5673,-296.4886,21.4763,296.4886,333.6151,85.0283,100.7472,115.2453,235.2998,0
-546.3841,203.4345,546.3841,870.9209,-230.6153,16.7047,230.6153,259.493,-52.1592,70.8775,74.0909,154.0088,0
-775.3353,70.0496,775.3353,861.9828,-172.2891,40.8601,173.7795,201.8393,-113.374,53.2198,113.374,213.5549,0
-460.903,71.8678,460.903,630.4699,986.3664,324.0433,986.3664,1489.5469,-139.8217,61.8293,139.8217,246.7566,0
-144.8217,97.916,144.8217,293.865,1819.2549,172.691,1819.2549,2056.3369,-164.5062,65.5928,164.5062,305.8108,0
166.6004,86.612,168.0955,302.0511,2361.3555,160.7633,2361.3555,2656.4009,-178.5839,47.3304,178.5839,280.149,0
389.7025,63.966,389.7025,493.1122,2313.8022,167.6027,2313.8022,2603.5386,-159.804,36.3427,159.804,214.059,0
533.4054,35.3314,533.4054,609.9426,1799.7239,130.3705,1799.7239,2025.0872,-144.3281,36.6877,144.3281,189.8357,0
632.6436,21.2307,632.6436,673.2113,1399.8643,101.3993,1399.8643,1575.156,-133.5327,68.3381,133.5327,235.4911,0
694.8855,29.1546,694.8855,748.7074,1088.8441,78.8725,1088.8441,1225.1899,-107.444,45.7874,107.444,201.7183,0
693.0338,31.4359,693.0338,742.7601,846.926,61.3472,846.926,952.979,-86.8476,63.2347,89.4651,202.7742,0
610.6899,27.2359,610.6899,654.9454,658.7561,47.7172,658.7561,741.2466,-57.4096,47.4683,63.4032,117.7451,0
513.0959,39.9252,513.0959,605.3688,512.3937,37.1155,512.3937,576.5564,-45.641,48.5678,57.1768,103.0275,0
407.0405,29.3189,407.0405,461.6042,398.5504,28.8694,398.5504,448.4573,-5.3358,35.9804,32.3444,78.2085,0
321.8748,39.4778,321.8748,389.9351,310.0006,22.4546,310.0006,348.8193,-16.2504,30.5755,29.0607,73.0924,0
246.0803,32.5924,246.0803,304.8755,241.1246,17.4663,241.1246,271.3186,23.8199,55.9285,51.9781,111.5901,0
186.4025,14.6009,186.4025,219.8408,187.5507,13.586,187.5507,211.0364,14.8293,49.5815,41.6162,112.0571,0
144.3943,38.4264,144.3943,199.8882,145.8799,10.5673,145.8799,164.1477,29.0295,59.6451,57.132,120.3003,0
72.4912,34.5201,72.4912,134.3694,113.4677,8.2193,113.4677,127.6765,27.0616,46.4438,37.6772,124.6888,0
17.2803,28.8184,25.0324,80.9587,88.2567,6.3934,88.2567,99.3091,29.8679,42.8432,44.9945,90.4126,0
-28.8478,25.8084,30.0072,87.2197,-94.853,109.8541,120.3574,280.0247,29.7503,40.3242,39.1712,120.0148,0
-73.4118,21.8076,73.4118,103.7988,-378.8311,68.5191,378.8311,465.2041,18.8927,55.6816,50.7382,109.0623,0
-94.9236,19.7062,94.9236,124.5098,-528.7072,40.5974,528.7072,601.3625,26.6554,48.5699,44.6326,107.8079,0
-115.3369,24.4004,115.3369,162.3159,-590.3703,35.9275,590.3703,645.0222,24.5235,37.7117,36.664,103.9319,0
-124.4146,23.1213,124.4146,171.8167,-619.0612,30.8842,619.0612,670.0803,8.9677,50.9693,42.2798,112.1401,0
-136.236,23.4239,136.236,175.8811,-621.9606,17.3638,621.9606,650.374,24.5124,45.2266,44.7256,93.6819,0
-148.523,22.5356,148.523,177.9729,-606.3187,22.3539,606.3187,639.1594,11.4156,55.9032,49.6771,103.589,0
-132.6472,22.0622,132.6472,174.8301,-581.8506,18.38,581.8506,611.5015,18.7296,35.4666,35.506,64.347,0
-145.0323,26.5866,145.0323,195.9907,-540.4876,21.7576,540.4876,591.3909,-3.0898,52.2505,45.0263,93.8762,0
-153.6489,20.1882,153.6489,192.6044,-501.3923,20.831,501.3923,540.3933,13.9479,45.8701,42.1249,90.5924,0
-145.6926,24.9044,145.6926,182.983,-467.088,25.1506,467.088,518.0049,-2.0859,61.3881,52.3103,120.0638,0
-112.1714,22.3188,112.1714,159.1476,-424.0721,22.5258,424.0721,475.0339,2.2418,37.0921,29.8063,95.0771,0
-103.56,27.0763,103.56,150.2843,-387.8492,27.2989,387.8492,435.7966,5.3987,58.8437,50.6059,114.9946,0
-84.2163,20.8194,84.2163,122.7395,-339.1526,23.5842,339.1526,378.8884,2.1229,53.2673,48.335,84.7804,0
-76.2036,24.3235,76.2036,116.5913,-303.328,30.7251,303.328,367.3474,-4.0481,65.7093,59.1279,117.3466,0
-54.0917,20.1323,54.0917,82.8948,-263.399,27.9907,263.399,316.2329,2.7408,41.5541,36.9303,74.032,0
-53.9623,22.9192,53.9623,93.7959,-228.1537,26.7754,228.1537,278.687,-9.2013,51.6974,42.4883,115.6005,0
-46.3091,17.5815,46.3091,79.8583,-194.1663,19.9414,194.1663,227.7759,4.3356,39.5023,33.4864,83.42,0
-46.6202,22.5138,46.6202,85.9803,-176.9447,23.937,176.9447,227.5586,-1.0901,47.3983,39.707,89.2322,0
-33.5951,16.9193,33.5951,59.5656,-141.4402,23.6843,141.4402,188.4583,0.8665,43.4727,36.6338,90.1918,1
-17.6088,27.7818,27.3762,60.7156,-124.1027,27.0705,124.1027,181.6237,1.9658,48.7486,42.3837,96.6593,1
-17.3909,23.2066,23.3364,63.3571,-101.3911,24.9152,101.3911,153.1707,-1.6761,60.638,51.3507,106.4225,1
-11.8956,18.7911,18.9676,39.1934,-83.7132,27.2604,83.7132,131.6425,-7.0857,38.19,30.4076,79.6342,1
2.7213,24.432,20.3086,59.8241,-63.4023,34.3002,66.5731,105.2454,-18.033,49.9477,45.332,101.082,1
-107.1246,125.8581,153.034,248.1248,-60.2801,127.9076,123.6613,228.167,-8.2671,70.0668,59.8952,125.9908,1
-199.5026,53.549,199.5026,290.7458,-98.4516,72.9492,104.0812,221.2833,14.297,91.7884,82.6295,160.825,1
-684.2744,390.0404,684.2744,1136.416,-96.1313,67.6286,98.4004,222.9684,-6.8158,91.9106,72.2136,196.0343,1
-662.3412,203.6857,662.3412,938.8483,-41.049,108.3976,90.2339,292.1725,27.3733,120.7179,100.2438,226.172,1
298.4433,213.9804,328.6199,721.2239,74.5002,135.8081,107.674,408.3313,218.4816,141.8937,218.4816,487.3983,1
900.5801,345.0201,900.5801,1671.698,328.0894,179.8402,329.0759,720.5657,119.1878,116.591,132.4803,344.7172,1
1926.4197,298.5703,1926.4197,2253.8447,1026.6858,502.7308,1026.6858,1942.0759,15.4676,146.6568,113.3601,322.3221,1
1688.4354,122.3042,1688.4354,1899.8628,1674.6885,121.3044,1674.6885,1884.394,-67.3274,93.1419,97.4881,239.887,1
1313.3004,95.1309,1313.3004,1477.7532,1302.6075,94.3542,1302.6075,1465.7214,-92.8114,176.8407,153.2513,491.2379,1
1021.5128,73.9945,1021.5128,1149.4275,1013.195,73.3928,1013.195,1140.0684,-62.2423,196.579,163.7078,403.4733,1
758.4826,130.0251,758.4826,894.0488,788.0842,57.0838,788.0842,886.7688,-102.2776,92.3195,123.1271,217.0714,1
-28.4571,345.2609,269.7189,693.7405,612.9875,44.404,612.9875,689.7471,-219.6905,146.5591,232.9476,466.5299,1
-465.0706,316.7857,499.8051,986.8965,476.7939,34.5365,476.7939,536.4985,-221.4222,207.4656,249.834,522.0826,1
-718.0056,321.6324,718.0056,1239.5186,370.8596,26.864,370.8596,417.2993,-197.8383,94.9351,210.6658,348.5985,1
-846.6849,209.532,846.6849,1140.0034,288.462,20.8948,288.462,324.584,-91.234,178.3671,164.0166,427.8329,1
-891.823,237.604,891.823,1212.6101,224.371,16.2529,224.371,252.4673,-78.3951,106.7066,96.7621,272.4307,1
-910.8228,237.3961,910.8228,1396.8423,174.5195,12.642,174.5195,196.3735,-1.0489,127.4838,113.3052,199.5546,1
-783.2463,226.5951,783.2463,1234.0742,-143.8277,347.0023,304.2122,817.3457,19.5147,135.2489,111.5568,277.7513,1
-738.68,272.109,738.68,1183.0789,-733.7131,403.2627,758.1755,1298.4949,27.5054,84.7243,77.8627,181.5515,1
-691.928,140.13,691.928,963.4091,-1217.4985,148.3478,1217.4985,1542.5337,82.476,127.0123,123.8033,347.7151,1
-590.0656,136.3111,590.0656,848.6416,-1227.2046,113.0592,1227.2046,1404.8965,100.4181,91.523,109.6357,293.0083,1
-399.2029,186.7777,401.708,675.5505,-1265.5171,149.088,1265.5171,1510.6697,37.661,95.0848,84.6141,220.1379,1
-515.2689,209.2591,515.2689,960.6605,-1399.9965,154.1247,1399.9965,1646.7131,130.1455,69.6574,130.1455,272.7139,1
-270.05,141.7623,277.8097,483.683,-1217.572,146.0043,1217.572,1481.2197,87.8984,66.5908,100.3754,173.8925,1
-240.9624,71.6185,240.9624,387.7,-1277.4158,201.354,1277.4158,1617.7706,117.3937,45.2862,117.3937,202.8219,1
-155.1393,177.0331,174.3927,553.4937,-1266.8474,208.7427,1266.8474,1581.3311,55.734,110.4532,110.8315,257.0887,1
-13.4983,103.7099,83.9698,236.1158,-1199.3798,110.0832,1199.3798,1387.4982,86.3234,100.8884,108.6531,264.4178,1
-49.8219,133.1011,124.8266,235.042,-1006.243,85.376,1006.243,1164.0697,65.2216,39.7759,66.6242,133.9658,1
139.1075,200.3666,173.4848,636.4174,-807.4665,65.5033,807.4665,912.5095,6.481,55.3544,45.9274,111.9436,1
-2.9015,163.5884,129.5795,369.3004,-631.559,45.7464,631.559,710.6431,32.0926,122.9821,100.7688,314.2792,1
147.1113,269.8216,242.781,649.047,-488.6021,37.383,488.6021,552.7535,-2.3331,93.8355,70.7059,231.9418,1
210.8548,151.1795,210.8548,551.0287,-366.1841,52.7382,366.1841,430.6031,-38.729,71.275,65.1017,200.3656,1
125.8212,176.5435,169.9742,521.5366,-276.9088,78.5304,276.9088,333.1172,-1.451,97.7431,80.9481,210.1289,1
201.0959,180.9396,201.6182,659.9857,-108.2874,193.0044,198.4081,423.1901,-19.3239,116.0921,103.6628,200.41,1
119.1505,241.7074,197.3066,641.9152,-39.2166,244.4319,210.56,583.614,-3.1948,95.4413,83.3246,173.9343,1
107.8255,187.6185,169.9267,537.6257,-53.5434,176.8711,165.1964,271.9717,31.6786,80.012,64.9951,191.1991,1
203.542,151.9319,216.7642,451.1383,119.8037,129.8406,133.4686,441.9436,-23.277,72.6149,62.7596,147.6023,1
131.1625,199.2505,212.3937,408.939,268.9372,207.3316,288.4914,638.0468,-1.3827,48.3212,38.0757,120.2759,1
149.0746,175.8121,167.4119,625.2562,404.0731,161.3566,404.0731,616.7389,-11.764,130.7911,113.4325,238.2042,1
109.7368,126.3273,121.442,412.5729,449.1243,112.446,449.1243,629.7272,-22.5705,99.4035,82.0344,213.8125,1
92.4919,116.7346,120.5758,297.4095,401.0268,171.6052,401.0268,657.0237,8.1042,53.5961,44.1936,119.2061,1
71.5075,170.7667,140.0692,512.736,426.3632,143.226,426.3632,678.8786,27.2539,73.2772,69.1261,131.9939,1
104.2704,252.4711,244.9218,520.4786,397.2389,215.4487,397.994,774.8425,1.9705,58.6463,49.9596,129.5999,1
22.0278,122.1402,97.3196,301.3606,361.6336,77.238,361.6336,516.7006,43.9956,65.5134,68.3679,147.7836,1
62.9742,137.9518,137.0676,244.0759,386.3226,126.613,386.3226,642.3425,16.777,72.2639,59.255,168.4207,1
81.48,279.92,226.7607,671.6621,418.7122,261.0009,432.4496,1004.1151,12.4754,71.2513,62.8267,138.6775,0
-24.0695,182.4039,155.5592,339.068,322.9528,167.1323,322.9528,681.8434,13.6634,90.8217,69.7458,223.6375,0
65.4999,215.4543,197.7924,382.7015,312.4928,180.2574,319.579,632.9005,23.8619,37.9687,34.6335,101.5222,0
-50.1752,109.3887,99.6089,266.7648,219.3475,130.4114,219.3475,452.1895,11.9888,61.9859,50.2495,139.1897,0
-18.7087,27.4614,28.095,62.5485,87.2839,314.6606,270.828,887.1702,36.1744,64.5957,60.2863,127.4413,0
-561.2526,207.9711,561.2526,743.7274,-1211.6722,87.7668,1211.6722,1363.3984,22.8831,73.1589,56.7475,176.7589,0
-536.6097,108.9981,536.6097,708.8167,-942.4648,68.2666,942.4648,1060.4808,178.2815,102.9438,178.7353,330.9042,0
-331.1423,129.9055,331.1423,668.8481,-733.0694,53.1002,733.0694,824.8647,394.9084,156.8328,394.9084,653.3513,0
-447.7621,110.3172,447.7621,642.3596,-570.1973,41.3024,570.1973,641.5976,358.8712,132.3202,358.8712,557.9182,0
-173.277,83.0438,173.277,352.4342,-443.5118,32.1249,443.5118,499.0485,-36.4436,70.0253,64.8831,159.676,0
-153.1882,224.0338,175.9791,650.3375,-344.973,24.9881,344.973,388.1707,-157.9089,60.5582,157.9089,250.5847,0
-992.9389,131.1348,992.9389,1146.5907,-268.3274,19.4365,268.3274,301.9275,-208.4609,47.3573,208.4609,318.0999,0
-875.9526,63.4485,875.9526,985.6397,-208.7108,15.1179,208.7108,234.8457,-183.423,92.9946,183.423,354.1207,0
-681.3347,49.3534,681.3347,766.6519,66.9844,338.4948,282.1549,726.5715,-150.6661,57.7964,150.6661,287.1451,0
-529.9569,38.3872,529.9569,596.3183,1241.6033,270.7147,1241.6033,1642.0353,-106.9816,35.7322,106.9816,175.9005,0
-412.2119,29.8587,412.2119,463.8293,1937.5309,149.821,1937.5309,2188.7598,-94.3505,74.0723,104.1424,225.8787,0
-114.5132,183.2221,175.7414,360.7765,2443.8284,111.3257,2443.8284,2601.1113,-76.7711,36.102,76.9662,142.0109,0
418.2199,129.0481,418.2199,609.8856,2176.3682,157.6487,2176.3682,2448.8948,-69.6918,60.4475,75.2045,185.1407,0
772.5081,72.0301,772.5081,887.7149,1692.8259,122.6168,1692.8259,1904.8025,-34.4362,36.926,39.4733,99.9874,0
1000.8428,92.4898,1000.8428,1154.0693,1316.7156,95.3787,1316.7156,1481.5962,-48.014,25.9863,48.014,85.0504,0
1917.2635,292.6388,1917.2635,2162.9526,1024.1687,74.1871,1024.1687,1152.4163,-22.19,48.1659,44.5441,125.9891,0
1857.3315,115.3962,1857.3315,2042.2825,796.6195,57.705,796.6195,896.3733,-37.3117,45.7058,44.1394,149.4792,0
1443.1715,145.4665,1443.1715,1678.9291,619.6266,44.8832,619.6266,697.2173,-20.4733,42.4531,40.4872,86.1211,0
1027.8158,110.119,1027.8158,1191.4153,481.9583,34.9103,481.9583,542.3096,-31.3508,56.4319,55.3058,110.9371,0
690.6312,90.6008,690.6312,864.1709,374.8764,27.155,374.8764,421.8193,-12.7681,41.5503,37.6293,80.1367,0
413.2167,73.0331,413.2167,513.3125,291.5859,21.1214,291.5859,328.0991,-18.6597,60.3973,53.568,130.9348,0
325.4797,39.3814,325.4797,410.2234,226.8011,16.4288,226.8011,255.2017,-19.2316,53.0423,46.6279,112.2457,0
138.546,63.8966,138.546,251.0366,176.4102,12.7786,176.4102,198.5007,-14.4873,49.9335,43.3356,105.6228,0
-36.44,45.0342,45.2164,109.8289,137.2148,9.9395,137.2148,154.3972,4.3934,46.264,41.0125,82.2664,0
-159.0331,38.6222,159.0331,230.0886,106.7278,7.731,106.7278,120.0925,3.4151,56.8301,49.0849,103.8022,0
-245.7336,26.6173,245.7336,302.6169,15.52,93.3182,85.3332,214.5662,19.3843,53.7029,49.1556,104.9359,0
-304.6514,25.5294,304.6514,345.0833,-313.2752,85.4913,313.2752,442.9705,14.7086,43.5479,38.0338,102.3118,0
-330.0264,26.8773,330.0264,367.2253,-484.3863,48.8639,484.3863,572.1389,12.4682,36.6217,33.3296,72.1477,0
-338.4032,19.9037,338.4032,374.7974,-578.6759,23.7673,578.6759,619.0669,15.9659,46.6733,42.2619,86.205,0
-337.1448,19.3141,337.1448,369.6548,-633.7894,23.8696,633.7894,671.3523,20.9395,42.3133,39.2667,95.2429,0
-328.8733,18.9878,328.8733,358.0005,-630.7581,23.9852,630.7581,677.7344,15.6977,44.4245,38.2751,112.952,0
-301.6742,21.8854,301.6742,333.8782,-602.6793,26.6919,602.6793,652.802,9.2972,39.7132,35.9911,90.0425,0
-287.9201,24.619,287.9201,327.2212,-568.6084,29.0617,568.6084,623.1946,17.391,50.19,43.1888,104.2117,0
-259.0063,15.8001,259.0063,288.4138,-529.4186,23.5279,529.4186,571.2998,2.7439,52.3472,45.5892,90.4817,0
-240.4477,20.5188,240.4477,282.5598,-475.0922,24.7911,475.0922,531.8394,20.7279,52.5181,48.1854,108.8079,0
-212.9991,23.3165,212.9991,245.5385,-444.2581,22.2318,444.2581,481.8855,-0.3445,47.0773,41.3961,75.1013,0
-173.6646,13.8808,173.6646,210.7783,-404.1229,27.0673,404.1229,452.9895,15.6952,40.7243,37.02,82.2281,0
-154.0872,25.9497,154.0872,187.9818,-368.6324,22.4486,368.6324,396.1772,1.08,45.5319,40.5312,73.5089,0
-134.0755,15.7156,134.0755,150.5054,-328.8556,22.6903,328.8556,368.1948,10.5741,44.2849,40.1872,77.976,0
-108.7755,27.2828,108.7755,149.8354,-307.0163,26.9947,307.0163,353.2612,-14.3776,56.1737,50.2272,122.3953,0
-87.4775,24.2538,87.4775,128.1425,-266.6119,29.4045,266.6119,328.5103,17.2865,61.4197,56.4349,104.8549,0
-64.195,25.0652,64.195,96.7838,-246.5603,22.1646,246.5603,288.8853,-11.7236,53.2707,47.8849,99.2764,0
-43.888,20.7192,43.888,73.8938,-208.3702,24.3352,208.3702,245.8909,4.6266,53.0991,48.2477,92.4142,0
-37.1815,22.6581,37.1815,68.5299,-194.7134,32.7098,194.7134,242.3938,-2.1134,49.6185,43.4072,97.981,0
-15.4514,23.4321,21.959,62.0793,-156.9517,20.9165,156.9517,195.3315,10.2452,54.6121,49.613,92.8768,0
-17.1063,17.689,20.3466,48.2046,-142.777,23.2663,142.777,183.1387,-2.9439,48.7621,43.4836,91.929,1
-12.0019,24.0574,22.3349,51.2778,-116.1057,25.111,116.1057,157.137,9.9096,51.0223,45.8766,82.9764,1
-5.876,19.1624,17.8935,32.578,-101.9578,22.9709,101.9578,136.0942,1.4277,51.1844,43.4518,99.4684,1
7.0184,27.1225,23.8985,56.6351,-71.0164,34.1958,71.0164,140.532,-0.6695,59.0903,50.7763,112.8014,1
25.9042,22.8038,28.4299,70.506,-54.1283,57.2566,71.2728,127.5817,-19.5999,44.1997,41.1789,99.5579,1
-95.7682,116.4669,137.6823,261.4429,-54.0456,45.2123,54.1008,167.9608,23.3193,71.1719,55.562,177.7177,1
-149.7118,107.9561,149.7118,369.5573,-81.4249,82.9507,97.8445,196.1978,-13.4132,83.6183,72.1013,182.238,1
-72.8593,150.8345,118.7095,426.3174,-61.5535,157.3899,144.2685,322.0524,39.9267,59.4266,57.2417,164.093,1
46.2514,203.1334,170.3312,369.1893,-65.3509,180.5625,168.2505,327.3872,206.9052,107.1118,206.9151,400.135,1
1091.6919,613.942,1091.6919,2108.4858,260.2784,181.9157,260.6978,554.9705,140.7687,156.3286,168.3263,482.3386,1
1836.5518,133.0315,1836.5518,2066.5269,1191.1188,624.8942,1191.1188,2024.5374,24.5112,139.2932,110.1482,294.9542,1
1428.5088,103.4735,1428.5088,1607.3877,1643.6323,119.0579,1643.6323,1849.4495,-36.3823,175.239,142.5389,491.9257,1
1111.124,80.4831,1111.124,1250.2603,1278.4517,92.6059,1278.4517,1438.541,-112.2691,226.317,197.0393,503.5466,1
864.2548,62.6027,864.2548,972.478,994.4066,72.0324,994.4066,1118.927,-83.3708,129.7105,137.4065,374.6404,1
663.1266,76.0386,663.1266,756.4128,773.4699,56.0272,773.4699,870.325,-227.88,100.5362,227.88,471.7916,1
-235.1131,286.9983,310.027,648.165,601.6209,43.5786,601.6209,676.9565,-212.1891,142.704,215.9226,483.0648,1
-518.2318,313.9187,523.3674,1157.1675,467.953,33.8962,467.953,526.5505,-164.7832,132.159,180.4618,418.1375,1
-785.7766,155.5134,785.7766,1161.4358,363.983,26.3658,363.983,409.562,-132.3739,81.3463,135.6933,263.0128,1
-1027.9722,138.223,1027.9722,1211.1082,283.1128,20.5074,283.1128,318.5647,-37.852,135.2298,124.9963,237.1927,1
-935.2569,165.8636,935.2569,1282.9756,220.2105,15.9511,220.2105,247.7856,-39.2984,99.5756,78.302,247.8744,1
-1051.4287,173.2153,1051.4287,1341.5879,171.2837,12.4078,171.2837,192.7327,76.6033,182.496,167.4796,365.6022,1
-860.9583,302.744,860.9583,1315.6577,126.2578,38.3959,130.7745,149.9104,11.8112,71.7785,60.9787,148.8826,1
-869.4824,154.16,869.4824,1157.3601,-1117.4786,240.8142,1117.4786,1465.8933,64.1421,82.1972,81.776,212.2983,1
-638.0024,136.5882,638.0024,887.5201,-1699.5177,100.7613,1699.5177,1899.2971,-6.5971,120.8306,101.1467,282.7354,1
-607.3467,114.5998,607.3467,814.3516,-2005.6516,198.8231,2005.6516,2330.8533,57.5292,89.5227,85.2461,223.7118,1
-500.4085,135.0992,500.4085,648.1868,-2132.0208,111.9398,2132.0208,2311.2585,20.4602,133.1961,116.4843,228.3424,1
-395.8644,274.0745,405.6828,855.7242,-1880.3964,146.2122,1880.3964,2197.0408,79.5798,161.1636,129.7903,443.3479,1
-309.6764,216.5576,317.9637,662.1937,-1534.759,111.172,1534.759,1726.9424,57.3532,125.9282,125.4549,259.8484,1
-150.0189,178.2905,193.3066,473.5734,-1193.7687,86.4724,1193.7687,1343.2531,75.366,51.6369,78.7142,166.6184,1
-131.3902,168.859,177.1987,400.4415,-928.5391,67.2585,928.5391,1044.8112,81.0373,87.4981,100.2171,252.3698,1
-32.5336,124.3119,111.5583,235.3358,-722.2375,52.3168,722.2375,812.6766,71.0086,84.9894,95.1403,185.8278,1
47.9156,172.6434,155.2738,323.3397,-561.7722,40.6922,561.7722,632.1175,35.7883,69.6691,54.389,209.105,1
-3.5778,86.2449,73.0673,159.0179,-436.9586,31.6512,436.9586,491.6748,80.9807,93.463,97.6747,246.3229,1
115.7874,77.0016,116.7179,242.1097,-339.8757,24.6196,339.8757,382.4352,6.6787,60.8636,50.7476,118.8726,1
117.3104,91.8396,129.5878,297.7452,-264.3627,19.1496,264.3627,297.4664,40.4085,101.3929,95.043,210.1931,1
141.7126,77.0134,141.7126,295.7578,-205.627,14.8948,205.627,231.3757,41.5673,97.0304,80.6783,208.1869,1
213.3332,74.8872,213.3332,334.1147,-159.9411,11.5854,159.9411,179.969,25.979,51.3566,50.0106,106.283,1
150.8676,154.9718,174.2181,516.066,-104.6167,42.3174,104.6167,139.9838,27.2654,60.4451,54.7532,141.9268,1
199.8395,184.7258,231.7816,533.618,67.5245,166.3344,156.96,330.2717,36.0271,130.0767,110.7918,296.9888,1
206.4705,215.665,263.3341,563.8505,133.0191,222.9247,201.1988,583.2281,-2.1126,96.3957,80.0554,213.9481,1
189.1326,160.1275,199.0022,513.5421,275.041,162.9667,279.3671,603.1882,4.1392,68.0234,56.9133,135.6667,1
143.6161,161.6043,185.8056,399.512,332.1935,142.8903,332.1935,572.9725,-1.9606,95.7156,75.8086,190.1222,1
144.3193,80.9934,149.3599,265.1072,406.1597,128.6351,406.1597,676.6973,-12.6408,128.3115,111.8317,245.1504,1
103.3583,148.9329,122.6987,441.389,401.6563,115.9903,401.6563,605.4565,-4.5968,74.0206,63.7177,169.551,1
151.1196,143.2492,167.0892,452.8024,474.2212,128.1913,474.2212,703.8832,-1.0654,90.4814,76.7233,186.3197,1
79.1168,90.0891,105.4023,243.9845,423.0866,111.2929,423.0866,606.9316,-20.813,68.0286,58.2106,152.9988,1
80.5573,51.1745,80.5573,197.885,450.3802,150.53,450.3802,669.0373,-2.5766,96.0629,80.4179,183.4137,1
76.2523,106.3138,109.5789,241.3979,408.2528,122.0386,408.2528,636.8865,-22.2169,57.9641,49.153,141.0023,1
99.0659,107.4735,109.2245,302.0537,424.6038,116.5804,424.6038,645.4211,-19.128,54.1849,45.4015,134.9117,1
4.5306,86.6257,69.9201,197.0631,332.5458,91.7775,332.5458,482.8685,4.2387,61.8284,54.8582,114.3481,1
46.8529,77.667,76.968,176.3314,364.9362,113.1029,364.9362,561.7976,-12.9627,98.4352,85.9968,180.302,0
13.2272,102.3553,85.8754,217.3405,252.6055,157.6182,252.6055,614.1189,-24.3265,39.0279,32.7822,116.8795,0
-6.3005,97.2027,75.6544,215.5421,262.4716,166.7954,262.4716,562.1628,-4.3908,38.0367,33.2282,76.4589,0
-17.656,37.9383,34.5992,81.5264,220.0451,117.5649,220.0451,411.6765,-11.0928,85.4878,77.3311,138.3418,0
-26.4122,58.1145,54.2126,122.6271,178.0425,111.2937,178.0425,381.697,-25.651,42.9359,41.4881,108.8698,0
-136.6398,126.8301,136.6398,487.0404,-417.3842,649.8408,524.8027,1445.791,7.4055,86.208,67.1827,177.7786,0
-928.1601,173.9293,928.1601,1169.1982,-1209.704,87.6251,1209.704,1361.1837,-15.093,74.4941,63.639,152.1768,0
-921.0591,122.0271,921.0591,1116.3804,-940.9341,68.1579,940.9341,1058.7584,133.8249,165.7721,182.1544,435.0996,0
-447.7768,153.9924,447.7768,656.4509,-731.8787,53.0157,731.8787,823.5251,392.7966,90.7769,392.7966,574.3024,0
-17.2574,84.0999,66.6725,195.0221,-569.2712,41.2339,569.2712,640.5555,303.8965,166.8752,315.4203,542.7037,0
239.5226,57.2619,239.5226,371.1842,-442.7913,32.0734,442.7913,498.2378,-104.3493,78.3388,111.1986,253.8972,0
40.9886,114.6761,99.569,238.4713,-344.4126,24.9488,344.4126,387.5402,-168.4216,61.6341,168.4216,277.8369,0
3.5155,261.4874,194.875,760.3589,-267.8915,19.4052,267.8915,301.4371,-174.824,72.0391,174.824,288.4309,0
-1065.6199,71.3366,1065.6199,1185.9973,-208.3718,15.0936,208.3718,234.4643,-146.6171,75.1422,147.3528,258.3314,0
-791.824,100.6563,791.824,907.2753,559.2073,475.785,638.1709,1162.5725,-101.5008,54.5953,101.5008,187.1516,0
-345.0377,131.1285,345.0377,592.3247,1616.9357,203.5775,1616.9357,1950.2551,-77.6558,67.1315,81.6983,187.5732,0
86.3402,101.9078,113.8122,227.0551,2158.8232,123.8617,2158.8232,2340.0977,-88.7584,69.6472,94.7293,199.8481,0
412.8767,90.5325,412.8767,569.7573,2448.189,141.9957,2448.189,2664.1858,-46.9634,43.4699,55.4763,112.6985,0
640.8809,45.0165,640.8809,717.0032,1933.7432,140.0763,1933.7432,2175.8887,-43.9583,73.0794,72.7576,150.6381,0
736.4901,25.2963,736.4901,777.52,1504.1062,108.952,1504.1062,1692.4517,-21.8501,70.8876,57.4336,150.3152,0
746.3125,19.5167,746.3125,784.8059,1169.9253,84.7448,1169.9253,1316.4246,-10.8888,47.9092,42.2505,87.548,0
732.8627,28.9503,732.8627,791.6921,909.9924,65.9144,909.9924,1023.9426,1.4148,74.0285,63.3047,121.2925,0
633.3588,56.2024,633.3588,711.2219,707.8106,51.2712,707.8106,796.4434,-18.818,41.4869,40.5976,78.0975,0
526.0089,29.354,526.0089,573.7629,550.5493,39.8785,550.5493,619.49,-0.3821,39.7148,32.7369,91.2324,0
454.2737,26.9311,454.2737,504.5388,428.2281,31.0192,428.2281,481.8516,-0.7633,47.2844,40.3912,101.524,0
379.9045,40.407,379.9045,441.4705,333.0841,24.1277,333.0841,374.7937,16.0578,42.2504,38.682,78.9469,0
299.8282,28.1305,299.8282,335.5934,259.0795,18.7665,259.0795,291.5217,-1.4983,62.2307,52.04,108.299,0
230.0164,26.2713,230.0164,276.3596,201.5166,14.5975,201.5166,226.7512,14.6913,50.2067,46.1203,90.0735,0
158.1676,29.9278,158.1676,201.7568,156.7429,11.3542,156.7429,176.3711,-4.1358,45.6264,36.7813,102.2548,0
77.0766,44.8745,77.2587,141.1138,121.9173,8.8314,121.9173,137.1841,14.8734,47.9536,44.4264,87.193,0
-7.5928,32.0281,27.4752,61.6174,94.8288,6.8694,94.8288,106.7041,-11.1057,71.2,63.4193,135.4805,0
-43.2446,18.7316,43.2446,71.2717,43.7201,47.0603,56.2317,90.2078,11.9184,53.9925,48.4239,107.6295,0
-53.6069,20.0916,53.6069,93.125,-273.3525,70.6891,273.3525,409.6338,-14.3659,65.5216,59.8356,117.568,0
-45.4897,30.2255,45.4897,100.9963,-489.657,71.5988,489.657,575.5305,-3.4842,61.7437,50.0809,132.9517,0
-53.146,11.3679,53.146,71.8818,-593.0231,39.4011,593.0231,675.1128,-5.4947,77.0237,67.3877,127.1921,0
-54.1243,13.5972,54.1243,71.2756,-616.7029,29.4849,616.7029,669.3765,0.9119,37.9235,34.4375,57.0024,0
-101.2241,34.368,101.2241,152.4998,-628.574,29.0618,628.574,685.2839,-3.5325,60.1946,53.4749,104.2069,0
-96.9885,19.1911,96.9885,119.9509,-601.301,22.8716,601.301,641.2231,10.0452,55.5547,50.7477,86.8926,0
-96.7776,26.1718,96.7776,131.0857,-585.96,38.9448,585.96,648.644,6.494,54.8368,46.5881,105.0444,0
-98.12,18.9757,98.12,131.2495,-538.179,30.8445,538.179,592.4302,-5.3237,63.7056,55.156,102.5695,0
-111.7636,18.3836,111.7636,139.1936,-521.3844,33.2683,521.3844,597.5647,-10.6971,50.1083,44.8106,106.799,0
-101.8311,22.5772,101.8311,137.5118,-472.3925,30.6937,472.3925,519.2686,24.7245,52.1229,47.9868,96.1915,0
-100.3812,25.6993,100.3812,145.0984,-427.3758,33.81,427.3758,483.4263,3.7361,61.9018,51.7341,136.9937,0
-94.7433,20.6375,94.7433,127.6786,-389.6569,32.7846,389.6569,438.6379,7.2477,58.7783,53.6836,98.5757,0
-86.064,32.2015,86.064,134.4298,-345.7642,27.7028,345.7642,391.5674,9.2381,34.8698,30.2761,64.1145,0
-66.7838,22.5823,66.7838,109.1526,-303.462,28.6179,303.462,365.5232,-7.3839,52.8397,46.6883,91.9702,0
-67.7405,21.745,67.7405,108.2455,-265.3293,28.8312,265.3293,328.0696,4.3176,48.6956,41.0079,94.5381,0
-49.8014,13.0854,49.8014,71.7079,-233.5917,27.0829,233.5917,276.9727,0.6804,53.7778,46.8293,96.2096,0
-39.9467,20.2473,39.9467,72.0758,-211.7785,24.5132,211.7785,251.8511,-0.1392,50.7099,44.4696,88.2312,0
-32.7299,21.5314,34.1603,65.7672,-186.7027,15.2756,186.7027,214.4087,-0.0754,54.2118,47.4756,93.5233,0
-38.9263,22.4955,39.4321,81.1589,-157.501,30.2843,157.501,201.7317,-7.5502,44.329,39.0023,76.1365,1
-33.5055,22.9527,35.755,66.8774,-132.6656,17.0024,132.6656,159.496,4.3308,40.8964,35.0241,79.6622,1
-38.116,19.7192,38.116,88.9786,-114.7887,24.2409,114.7887,155.921,4.0812,64.5086,56.2379,115.4835,1
-20.801,16.3108,22.6136,47.0002,-97.088,28.3057,97.088,134.1439,12.1934,57.8763,51.9068,103.8447,1
-15.6192,15.8352,17.5922,42.5703,-77.6435,28.5155,77.6435,133.2634,8.7782,46.1603,40.8404,83.4022,1
-17.1779,11.8356,17.5231,41.719,-63.1486,33.3201,64.1698,109.0137,7.5255,54.429,46.7174,119.2029,1
-54.8577,125.5094,77.924,343.2896,-19.2755,80.0758,64.5317,188.3357,2.8058,97.1137,80.2632,190.6027,1
-151.934,77.8543,151.934,328.5481,-85.3826,48.4449,85.3826,173.4528,9.2399,68.1699,56.2348,124.3806,1
-44.8793,75.0387,76.7711,163.5292,-87.8959,111.4367,117.7931,286.7327,16.5369,107.314,91.1402,239.8147,1
7.5439,194.5557,152.3206,408.6689,-29.5733,209.0202,181.363,364.9042,92.4728,193.2908,192.7986,321.873,1
327.6416,242.263,331.5876,854.7318,115.8693,89.8008,118.3646,298.4465,190.3283,116.1341,191.9273,376.5364,1
1786.1893,396.8884,1786.1893,2146.3169,583.1381,375.3842,583.1381,1222.0541,79.1088,147.9579,147.275,309.8809,1
1575.8853,114.1541,1575.8853,1773.2192,1706.1829,139.3639,1706.1829,1888.5688,43.3249,145.4681,120.779,311.7839,1
1225.757,88.7905,1225.757,1379.2473,1429.0847,103.5175,1429.0847,1608.0361,-93.4181,134.7807,144.5314,296.3177,1
953.4193,69.062,953.4193,1072.8076,1111.5718,80.5151,1111.5718,1250.7639,-132.2627,79.5459,133.8121,266.0361,1
741.5895,53.7173,741.5895,834.4517,864.6033,62.6315,864.6033,972.8701,-271.1114,130.7582,278.6901,419.7487,1
564.848,75.1968,564.848,649.0544,672.5064,48.7135,672.5064,756.7185,-217.042,136.2896,224.6287,443.1464,1
-28.9327,389.6456,338.2263,772.9463,523.0891,37.8909,523.0891,588.5913,-187.2448,116.8495,188.889,385.1814,1
-668.7083,179.6405,668.7083,888.2439,406.8692,29.4723,406.8692,457.8179,-99.788,111.4442,127.1751,250.1866,1
-925.2418,169.2306,925.2418,1177.8108,316.471,22.9238,316.471,356.1001,-61.0891,105.2404,100.0769,274.1816,1
-1064.5244,187.2215,1064.5244,1413.8577,246.157,17.8308,246.157,276.9812,14.2506,101.909,86.974,216.5492,1
-1075.749,114.2006,1075.749,1336.1772,191.4652,13.8691,191.4652,215.4412,22.0697,62.3073,57.5361,131.3739,1
-1100.434,156.7047,1100.434,1298.0359,-439.302,380.0995,509.4371,876.7095,52.2668,83.2601,83.0135,178.6791,1
-1000.0549,182.2637,1000.0549,1339.4502,-1161.9077,225.0643,1161.9077,1459.8521,41.5586,161.6256,143.1658,310.63,1
-925.8586,200.8847,925.8586,1187.6818,-1517.5068,195.3683,1517.5068,1905.3713,22.7288,106.6856,91.9378,239.1429,1
-837.0872,237.1157,837.0872,1157.9619,-1824.593,193.1245,1824.593,2208.0969,2.6291,71.542,50.6506,174.7797,1
-620.6802,183.0398,620.6802,965.9874,-1756.3695,128.4082,1756.3695,2002.5247,-19.4649,165.9477,141.3548,342.7271,1
-548.4984,148.7047,548.4984,876.2595,-1752.6382,140.0969,1752.6382,1990.7926,46.4372,100.5881,89.8794,243.5544,1
-346.3297,179.5815,352.6746,569.4268,-1462.2002,109.6487,1462.2002,1594.3616,79.6479,88.5018,105.755,180.3214,1
-354.9421,157.9207,354.9421,569.6425,-1250.1079,92.4734,1250.1079,1407.8502,126.0305,70.4467,134.8824,225.2362,1
-229.0389,176.5151,238.5391,466.4351,-946.8686,74.255,946.8686,1060.3643,124.2755,82.4136,130.8573,265.989,1
-100.6765,111.4438,124.1373,293.114,-715.2595,97.2036,715.2595,858.6068,147.3122,72.1251,147.3122,291.6525,1
-64.2408,119.6147,113.8307,254.5245,-496.4989,167.1526,496.4989,659.202,104.0118,102.0252,113.4385,352.0959,1
48.4176,111.4458,84.7858,314.0034,-320.5955,137.3072,320.5955,555.6676,112.3973,81.7802,112.9185,301.6926,1
95.9025,114.4315,116.7792,332.6411,-109.7942,177.8905,165.2821,458.0752,51.0841,96.2139,91.2719,207.0148,1
111.112,97.6716,124.1423,301.2954,11.4283,124.2771,103.5835,262.5175,38.9193,75.0031,74.6099,150.2511,1
159.0,92.7035,159.0,359.3257,100.2021,158.8721,159.2264,315.929,36.9821,84.3613,72.9169,202.12,1
224.153,116.9275,224.153,469.9769,213.9723,198.1048,246.4875,677.1803,23.8021,73.4427,60.1177,173.9233,1
163.307,90.7428,163.307,318.4381,256.7096,175.0067,257.6251,548.3005,87.0236,63.4832,95.6136,190.004,1
254.7655,125.6853,254.7655,594.1802,478.1973,108.6262,478.1973,741.6743,43.2891,77.5346,70.9243,205.5758,1
185.403,101.6403,185.403,379.6753,428.1137,113.897,428.1137,620.0012,-5.9774,73.0334,61.9676,128.7452,1
210.3074,103.0241,210.4658,446.6732,469.3565,158.1105,469.3565,734.1859,-5.6336,66.6552,52.0928,143.4712,1
186.3863,89.4702,186.3863,390.8522,363.5145,187.3316,363.5145,666.4697,-38.108,58.3508,58.6627,138.4808,1
163.146,54.1399,163.146,240.7791,361.5803,102.1162,361.5803,524.858,-65.6764,69.3506,80.6158,192.4948,1
143.1998,160.455,174.3414,436.4091,268.1665,102.5882,268.1665,480.9994,-33.955,104.1352,90.1869,254.8252,1
158.4474,129.7476,158.4474,463.7529,252.4588,140.293,255.6701,434.6937,-55.403,98.2436,91.5356,218.2964,1
30.7776,57.1256,48.6434,161.3234,183.0182,126.4351,189.1145,364.265,-51.4976,50.1655,61.3561,130.7429,1
-32.0229,83.7716,77.4611,178.6737,145.7789,141.4991,168.6049,367.2208,-55.6072,50.9706,62.3859,132.3123,1
-137.9728,115.1373,147.0957,382.3575,11.1684,95.4021,85.0565,174.8903,-133.8268,70.6788,133.8268,302.0736,1
-383.482,81.3964,383.482,499.8046,-207.4067,155.2368,218.2506,494.0179,-123.6362,68.5336,124.5167,249.7501,1
-299.4591,99.3823,299.4591,560.8978,-566.9213,303.5248,566.9213,1168.3158,-149.4798,53.6589,149.4798,213.8965,0
-1011.1387,210.6272,1011.1387,1235.9927,-1013.497,73.4119,1013.497,1140.4077,-46.0741,47.0105,56.938,125.2101,0
-1014.054,73.4533,1014.054,1141.0342,-788.3198,57.1025,788.3198,887.0336,160.2279,104.4585,165.8591,288.567,0
-788.7531,57.1347,788.7531,887.5212,-613.1721,44.4142,613.1721,689.9538,227.1571,133.4793,241.1304,399.4106,0
-613.5092,44.4387,613.5092,690.333,-476.9383,34.5474,476.9383,536.6608,269.5339,253.598,305.6823,689.5522,0
-477.2006,34.5663,477.2006,536.9559,-370.9729,26.8713,370.9729,417.4263,189.3943,221.0289,245.0265,543.46,0
-245.6775,132.2648,245.6775,417.6559,-288.5508,20.9011,288.5508,324.6832,16.0762,180.7889,150.9855,356.7394,0
-64.5362,35.3644,66.3018,129.5266,-224.4409,16.2579,224.4409,252.5456,-203.8029,96.7612,203.8029,413.5363,0
181.3725,108.4145,181.3725,362.0691,-174.575,12.6456,174.575,196.4354,-214.8129,85.4908,214.8129,345.4077,0
154.1274,62.2118,154.1274,289.7397,-135.7882,9.8359,135.7882,152.7917,-132.9679,75.5143,132.9679,264.0193,0
410.8782,60.7294,410.8782,501.7009,227.1168,344.996,330.3852,762.6022,-125.6485,61.8167,125.6485,220.3717,0
417.4036,81.8881,417.4036,562.5773,1161.176,204.4446,1161.176,1482.3757,-126.4362,71.6893,126.4362,227.4818,0
625.0865,51.2859,625.0865,718.727,1662.64,95.825,1662.64,1831.5168,-88.5021,51.3017,89.0361,167.632,0
844.1239,51.007,844.1239,923.9609,1901.3153,49.5136,1901.3153,1993.6871,-60.4892,54.1267,64.0589,147.7869,0
945.3795,31.818,945.3795,997.3212,2040.0782,76.2463,2040.0782,2163.2148,-17.4186,47.1587,40.5788,97.6746,0
988.3694,17.7981,988.3694,1015.4304,1938.6815,135.998,1938.6815,2187.1226,7.1696,44.3677,37.1159,93.5494,0
960.8803,28.073,960.8803,1009.0,1512.9929,109.5944,1512.9929,1702.4512,34.556,69.2168,64.6069,162.5964,0
964.4044,23.6613,964.4044,1002.9381,1176.8375,85.2464,1176.8375,1324.2021,41.869,49.5841,53.803,139.89,0
815.6898,75.0033,815.6898,903.8096,915.3683,66.3064,915.3683,1029.9922,29.9733,54.8622,48.3874,153.6674,0
676.5273,24.327,676.5273,716.8652,711.9924,51.573,711.9924,801.1489,49.2042,68.1361,71.4187,157.0807,0
581.2258,40.8355,581.2258,649.6736,553.8025,40.1138,553.8025,623.1499,38.8938,57.2295,52.4242,153.7842,0
436.781,47.1362,436.781,535.7249,430.7586,31.2033,430.7586,484.699,51.4863,33.9486,52.3118,101.2327,0
274.991,50.803,274.991,386.2607,335.0526,24.2702,335.0526,377.0085,45.3662,52.7305,54.8975,146.339,0
192.2122,30.4642,192.2122,259.4817,260.4861,18.6179,260.4861,290.3518,57.8672,55.3157,71.7695,131.5991,0
105.3222,28.0058,105.3222,151.4556,202.7353,14.6857,202.7353,228.1226,62.6821,55.1861,67.921,158.0605,0
11.1157,22.2243,18.6848,61.9578,135.6731,47.7014,137.3557,177.4375,34.9608,63.7199,61.1113,134.2826,0
-42.8306,27.2888,43.1673,98.3992,-103.2451,74.0467,107.6817,217.7993,35.4394,56.7931,57.3303,120.7396,0
62.739,53.1341,71.5108,120.0811,-304.4463,61.5579,304.4463,420.0833,16.1926,42.8376,38.313,106.6622,0
113.9771,61.0685,113.9771,194.4724,-425.548,44.1506,425.548,503.3093,12.4111,70.3302,62.6042,112.485,0
38.8108,51.2967,48.1792,151.4348,-495.632,39.4277,495.632,598.4634,7.2949,47.1692,42.8349,73.1829,0
43.7274,48.6979,57.7959,119.2659,-536.3705,40.2762,536.3705,604.3589,6.8904,55.3836,45.2038,114.9624,0
-86.0807,71.3207,93.5987,214.1421,-548.283,28.5522,548.283,589.8997,-2.062,50.3228,44.2919,88.7444,0
-244.3066,40.3961,244.3066,305.3286,-531.4249,31.0702,531.4249,577.0847,1.0877,43.2928,37.4958,76.1161,0
-342.7234,32.3898,342.7234,407.9036,-525.7641,23.1487,525.7641,566.7307,-8.1644,65.5167,57.4906,107.749,0
-394.2563,24.6374,394.2563,433.1116,-499.1088,32.71,499.1088,555.9805,1.0909,69.0277,61.1648,118.1315,0
-412.4096,19.8264,412.4096,460.2019,-479.9167,21.8752,479.9167,512.677,-15.9399,54.6098,46.6342,129.0128,0
-407.1081,26.7047,407.1081,468.47,-438.4843,30.46,438.4843,495.9602,-7.5369,59.0966,49.6612,126.9684,0
-400.8164,15.4239,400.8164,423.3987,-416.8048,21.3477,416.8048,452.8179,-23.912,54.6358,50.3977,133.0719,0
-352.7362,23.7969,352.7362,398.1599,-369.6198,24.9236,369.6198,409.3604,-10.0679,77.7714,69.2915,155.8779,0
-302.2989,34.4422,302.2989,351.395,-346.4346,27.1511,346.4346,398.5618,-25.0321,37.1996,38.4383,79.8373,0
-248.4992,25.6074,248.4992,296.8234,-303.0688,28.44,303.0688,359.7986,-7.3173,53.6855,45.6763,118.1132,0
-201.4993,16.4678,201.4993,227.2247,-274.2609,24.9282,274.2609,314.8064,-29.384,60.3884,59.9832,119.6116,0
-184.3262,11.7568,184.3262,210.0133,-237.3837,23.7495,237.3837,270.5542,-11.9578,51.2086,44.6866,105.1298,0
-172.7494,24.3215,172.7494,217.5687,-218.5055,22.5945,218.5055,260.9038,-25.9385,41.7987,40.2616,100.0747,0
-133.2236,30.5738,133.2236,176.9583,-183.547,27.6674,183.547,233.5862,-7.9778,63.366,51.6114,131.5288,0
-109.5804,20.3054,109.5804,145.9419,-180.6923,18.8824,180.6923,208.2612,-2.9358,54.3084,48.6553,84.0405,0
-87.8697,20.7401,87.8697,117.5984,-146.8956,27.3731,146.8956,182.3547,-4.3675,54.3119,48.7356,96.0577,0
-82.6979,22.433,82.6979,117.089,-138.6391,25.0713,138.6391,177.3459,-10.8248,39.8557,36.9934,73.1611,0
-55.1878,12.8068,55.1878,79.7471,-120.2959,22.9271,120.2959,156.4971,10.8875,51.2359,45.9506,100.46,0
-48.7641,18.6569,48.7641,86.4642,-113.2825,30.6997,113.2825,155.5555,-11.243,50.56,43.8501,112.5186,0
-22.978,24.8737,28.1454,64.2896,-89.5459,24.8181,89.5459,131.361,2.7529,53.6963,47.7798,91.7191,1
-11.7984,16.4539,16.6581,40.4332,-66.9529,29.203,66.9529,130.6576,-7.9617,64.6563,54.7389,131.6851,1
7.9184,17.8379,16.4877,39.9161,-54.0501,25.8104,54.0501,97.2511,10.3429,52.7822,45.2753,108.3986,1
15.4285,22.5238,22.7376,60.7498,-52.0009,35.0053,53.2412,113.1274,-10.9351,73.9699,61.0186,144.2274,1
61.9118,27.3227,61.9118,116.1305,-11.0557,64.2862,53.2971,125.235,1.5976,93.4479,73.147,200.6329,1
-10.7624,88.9522,77.0325,176.4617,-35.5882,129.7361,119.49,229.2623,11.2006,82.4929,67.7673,182.4552,1
-79.7049,64.8612,82.8141,234.0199,-57.949,74.8724,82.2172,172.751,45.3982,44.263,51.9947,121.1176,1
36.3367,205.6411,176.1098,364.3922,-32.2848,102.0797,83.7596,229.9316,-15.7776,103.4341,84.2728,198.0615,1
80.5056,131.3139,127.4477,304.4269,29.4864,149.9245,131.6338,279.4792,113.7222,142.3553,155.5321,324.3231,1
633.8151,342.2231,633.8151,1007.5179,91.6967,125.1993,121.531,367.4679,134.061,98.7007,142.2549,266.6277,1
1430.509,386.0905,1430.509,1925.6516,148.4843,154.1604,184.8848,359.1733,95.1719,196.9295,166.2636,476.4686,1
1595.0944,115.54,1595.0944,1794.833,824.7394,577.1765,824.7394,2013.9834,-14.9986,71.7621,56.9048,150.8798,1
1240.6981,89.8717,1240.6981,1396.0593,1736.6953,125.803,1736.6953,1954.166,-84.63,148.5013,109.9111,530.3926,1
965.0413,69.9022,965.0413,1085.8845,1350.8381,97.8479,1350.8381,1519.9915,-126.2274,178.1786,174.3557,495.5247,1
750.6295,54.3727,750.6295,844.624,1050.7103,76.1064,1050.7103,1182.281,-198.7143,118.9155,211.9027,436.1284,1
583.8554,42.292,583.8554,656.9663,817.2644,59.199,817.2644,919.603,-264.6559,152.7844,264.6559,546.6637,1
438.2148,80.4593,438.2148,511.0022,635.6851,46.0468,635.6851,715.2864,-167.8795,100.4308,171.8351,334.1125,1
-330.0565,401.4525,430.126,958.708,494.4484,35.8162,494.4484,556.3643,-125.9877,120.5322,141.4337,391.1615,1
-934.1307,221.3209,934.1307,1257.116,384.5913,27.8585,384.5913,432.7505,-45.2243,158.7382,131.5142,396.8656,1
-1131.6932,396.9975,1131.6932,1579.2881,299.1425,21.6692,299.1425,336.6018,-3.113,152.6132,117.8144,385.9166,1
-1134.7369,326.982,1134.7369,1710.041,232.6779,16.8546,232.6779,261.8152,18.4409,98.803,81.8771,206.7407,1
-1308.307,276.3727,1308.307,1894.7605,-288.9484,507.4899,472.8561,1051.6804,116.2519,158.5485,152.9652,451.4033,1
-1167.0513,226.8619,1167.0513,1511.8423,-1341.7092,183.5936,1341.7092,1787.5181,78.1469,113.7682,118.6632,299.3978,1
-1096.3967,183.1535,1096.3967,1507.6138,-1730.5841,170.6712,1730.5841,2078.6318,101.5997,81.4778,111.5706,252.5277,1
-965.8356,228.2717,965.8356,1282.6335,-1757.5601,223.9054,1757.5601,2127.0164,50.8515,102.9232,93.7513,218.853,1
-813.279,173.1774,813.279,1132.6365,-1371.7756,132.6692,1371.7756,1710.3987,74.1163,121.5724,116.769,268.6208,1
-682.9791,154.8692,682.9791,1001.511,-1388.3694,151.598,1388.3694,1731.9958,33.7784,132.6883,123.7496,206.0469,1
-409.8101,123.1479,409.8101,696.2023,-1281.4637,117.4246,1281.4637,1545.3638,35.4032,81.1448,78.9169,169.98,1
-410.3834,183.0052,410.3834,741.6943,-1193.4392,141.9876,1193.4392,1353.0291,1.4201,88.6843,74.5635,184.5657,1
-221.8439,310.7489,315.4887,723.4169,-966.1487,182.2312,966.1487,1200.1036,39.5278,80.7453,75.8574,159.7766,1
-60.8276,169.3065,158.3429,286.2033,-832.8999,134.3968,832.8999,1020.4118,14.7845,105.2334,85.9803,225.5358,1
-99.5441,191.1859,179.7538,436.4365,-700.729,62.3096,700.729,812.1871,62.3706,61.78,68.5468,213.3424,1
101.0423,198.0754,191.6061,419.6666,-549.1284,48.633,549.1284,637.0051,23.9763,103.4049,93.2386,220.5931,1
78.8566,163.0281,148.1746,414.6674,-418.5858,74.8554,418.5858,499.7231,51.7846,144.7791,135.1654,269.2693,1
154.5019,114.6145,167.3159,328.7634,-329.7169,57.21,329.7169,395.0768,35.8226,60.5545,53.4648,140.3132,1
182.0305,160.8397,195.3835,410.7029,-179.7843,132.4688,201.355,308.2545,40.3449,85.9206,79.4029,187.3607,1
223.0278,210.9974,249.3927,620.0001,-21.8381,193.2275,164.9497,383.8879,21.0916,60.5186,49.7908,168.8365,1
166.5502,183.1109,208.9711,522.3894,35.1791,234.0048,195.5983,543.3853,34.7538,98.9948,88.6667,214.8315,1
309.4095,181.9069,316.3304,566.7552,145.0634,114.4468,164.4094,340.9324,4.9055,87.0116,75.0633,160.298,1
187.8121,158.718,205.9512,449.0963,219.2663,166.5314,223.3998,530.2529,5.8542,71.5612,57.8811,170.1919,1
294.0197,116.8486,294.0197,540.568,301.8914,182.9696,301.8914,655.2186,14.612,100.7688,83.6385,238.7692,1
186.8505,278.5554,272.5158,764.8572,347.2812,265.6889,347.2812,972.1214,4.4994,105.0575,92.8543,197.7715,1
229.1608,164.5789,258.3175,471.968,308.3111,153.0107,312.6441,586.9822,-17.4562,127.5796,98.3866,268.3666,1
185.3062,199.823,229.6192,560.8326,412.2769,202.6032,420.9154,648.8948,28.7163,167.9482,137.9933,407.3779,1
167.4723,167.1316,195.7038,440.1573,361.4667,230.5123,380.9051,812.2144,-51.1978,63.0805,63.3002,209.9635,1
149.0313,93.4365,150.3924,365.9978,371.5943,106.1049,371.5943,632.7683,13.7263,74.7909,62.923,168.5261,1
187.7693,117.9835,191.8517,357.6971,400.4687,135.5015,400.4687,706.5424,-34.7943,94.8871,87.6547,223.7452,1
59.3559,115.5859,93.5666,344.2823,346.7167,105.0864,346.7167,487.2661,-22.9744,58.9375,50.8279,124.4197,1
95.432,127.4139,129.6575,336.8275,360.4374,137.6169,360.4374,506.8826,-5.0505,79.4,65.1127,186.4489,1
80.5617,152.9855,138.8437,368.2067,365.7883,113.3432,365.7883,580.4147,-3.1319,99.4407,74.4907,248.131,1
35.0582,157.1349,144.5318,258.5864,334.737,199.976,334.737,808.84,14.4196,91.5535,72.5047,196.0828,0
108.5594,198.0836,185.6616,467.1074,339.4054,214.1157,352.027,671.6307,-14.8323,125.4763,107.5955,237.4725,0
55.846,108.9754,86.9406,335.1788,286.879,150.0798,286.879,512.6393,-15.9395,65.4249,56.7856,135.6243,0
58.1656,121.6234,112.0715,241.521,224.3894,190.338,250.5599,582.511,14.661,54.1321,44.1108,117.1169,0
80.2127,174.3276,163.654,393.7507,246.1731,210.5113,277.6156,680.5645,-8.1648,97.3111,80.0244,228.9272,0
31.9737,209.2534,179.3853,396.1917,179.9744,186.1914,209.1297,490.8428,10.3656,99.883,80.6833,258.4574,0
3.4411,147.7546,108.5983,348.374,175.4806,155.9731,192.6841,442.7126,19.5602,66.8231,61.5626,129.4977,0
20.3326,107.2495,93.9472,243.2177,160.6801,107.0435,162.7817,359.1188,-31.3122,44.5438,49.5472,103.6428,0
-217.9006,147.5074,217.9006,517.3479,87.2033,167.2122,156.0607,406.6241,17.4362,59.1018,53.9794,118.191,0
-87.8995,156.8747,148.6946,383.9332,77.5882,118.9575,106.7273,325.9241,-15.2175,67.6138,59.5165,145.0173,0
-86.2553,65.2811,99.1124,166.4946,25.8537,93.5427,83.6629,207.224,-25.6394,61.1054,52.4579,144.8289,0
-232.4946,142.9897,232.4946,515.6719,-266.5801,486.59,315.5189,1741.5461,2.9646,52.986,47.0476,87.7645,0
-976.7823,420.1358,976.7823,1508.9049,-1532.2605,110.9866,1532.2605,1724.1307,-12.2428,73.8307,57.622,158.2778,0
-1260.6553,91.3162,1260.6553,1418.515,-1191.825,86.3295,1191.825,1341.0658,122.6163,138.6823,140.2676,411.0979,0
-922.24,153.3809,922.24,1103.3518,-927.027,67.1509,927.027,1043.11,287.1959,119.5254,287.1959,522.6212,0
-247.7454,203.8433,258.7775,578.9144,-721.0615,52.2311,721.0615,811.3533,189.0395,141.7057,212.4062,440.0599,0
116.5748,79.6575,119.3272,264.5153,-560.8571,40.6277,560.8571,631.088,-61.1549,113.4805,121.2616,188.5808,0
379.9322,81.3532,379.9322,488.9355,-436.2468,31.5995,436.2468,490.8738,-213.9107,34.5643,213.9107,286.0692,0
254.5269,156.8,254.5269,511.407,-339.3222,24.5788,339.3222,381.8123,-132.0542,64.1114,132.0542,247.8899,0
-396.8398,182.5796,396.8398,593.202,-263.932,19.118,263.932,296.9818,-143.0214,45.2689,143.0214,224.7894,0
-352.9452,91.074,352.9452,509.3451,291.7257,389.7275,428.2359,838.424,-72.7157,54.1113,76.2386,160.33,0
-71.0105,67.155,77.9219,174.2815,1173.7583,180.1203,1173.7583,1449.5961,-62.4408,45.2225,65.1062,152.252,0
230.5422,86.9935,230.5422,402.1831,1626.7228,99.8136,1626.7228,1792.8357,-19.1748,42.6673,39.7941,94.6722,0
200.691,63.4144,200.691,355.7578,1873.4517,63.6111,1873.4517,1998.713,-17.6183,55.6717,51.8999,96.6989,0
342.671,59.8092,342.671,454.5436,2115.5168,59.2661,2115.5168,2251.0669,1.7041,52.6784,46.6322,85.3057,0
517.5225,56.5873,517.5225,591.0547,1824.3143,132.1466,1824.3143,2052.7563,-18.348,57.285,53.0009,108.1322,0
621.2469,30.8726,621.2469,678.9102,1418.9897,102.7867,1418.9897,1596.6772,-7.0977,52.8526,45.5039,106.7461,0
651.9137,28.0039,651.9137,703.4323,1103.7201,79.9505,1103.7201,1241.9292,-11.0359,39.5837,34.9947,76.9166,0
644.6545,16.3828,644.6545,675.141,858.4965,62.1878,858.4965,965.9983,-1.4717,66.9029,58.9742,125.9552,0
587.5211,25.2303,587.5211,630.0074,667.7566,48.3691,667.7566,751.374,-3.4636,39.7766,33.8468,82.2207,0
542.9907,39.8526,542.9907,632.1671,519.3943,37.6237,519.3943,584.4338,15.3405,55.5234,51.1984,106.8309,0
466.4623,26.3828,466.4623,516.7227,403.9951,29.2636,403.9951,454.584,1.5187,71.2515,63.5125,120.2126,0
389.5395,27.4419,389.5395,460.2262,314.2357,22.7614,314.2357,353.5847,18.8812,53.645,49.2045,94.833,0
306.8715,24.0549,306.8715,342.1904,244.4185,17.705,244.4185,275.0254,3.4744,73.015,62.083,150.5665,0
232.0754,27.9929,232.0754,283.2913,190.1129,13.7713,190.1129,213.9194,-0.5806,49.2981,40.8917,100.2194,0
173.1656,19.696,173.1656,206.0498,130.3441,40.4742,130.3441,166.3904,-6.9332,52.5823,45.2061,90.209,0
101.7442,27.7323,101.7442,173.2319,-115.2836,80.5165,122.6253,292.7339,0.8987,74.6979,65.3461,142.4125,0
51.4491,36.0843,53.5169,115.9304,-335.2472,81.6754,335.2472,450.9431,4.4942,47.5836,41.5366,86.2284,0
10.792,23.676,21.5926,53.9275,-462.8588,40.0815,462.8588,527.3013,16.157,72.1915,64.619,121.0212,0
-33.1209,25.0508,36.1068,74.9753,-538.4507,37.4636,538.4507,600.1316,14.3355,58.9333,51.3169,114.0577,0
-61.7484,27.0075,61.7484,100.1394,-566.2847,35.6619,566.2847,619.4607,13.9645,66.4736,56.9729,130.8831,0
-81.37,16.8879,81.37,114.1233,-564.584,18.7778,564.584,598.219,8.4235,52.4926,46.2705,97.3383,0
-101.4472,21.9632,101.4472,132.4836,-554.9723,31.7614,554.9723,605.4348,2.9518,58.1261,49.6083,117.9465,0
-104.5095,17.2326,104.5095,134.2571,-529.3403,33.3762,529.3403,586.5811,2.2988,51.3252,45.3068,83.7305,0
-115.7462,23.3556,115.7462,150.9946,-512.752,30.4661,512.752,564.2925,-5.4491,45.2732,40.3876,86.8506,0
-118.6122,29.6115,118.6122,174.448,-463.6466,28.0719,463.6466,516.1394,23.593,51.2726,49.4493,93.5,0
-132.7533,21.9513,132.7533,172.52,-430.4366,28.5558,430.4366,481.4661,1.7404,73.9684,64.2766,129.7357,0
-125.2517,16.6782,125.2517,157.9248,-388.7758,22.6107,388.7758,435.1807,14.9995,41.0763,38.6512,70.2917,0
-130.4178,20.9308,130.4178,157.7202,-344.2093,33.5063,344.2093,406.4753,-3.5397,53.1611,48.1825,83.4656,0
-126.7044,21.6769,126.7044,158.7046,-299.6004,37.7612,299.6004,377.043,17.273,37.9944,35.9088,74.8632,0
-119.0952,27.6832,119.0952,160.4376,-284.3717,31.2878,284.3717,327.6538,-7.7218,62.1769,55.1881,107.2328,1
-103.0347,23.801,103.0347,139.8583,-258.7646,30.2423,258.7646,301.7153,-0.4335,42.9945,37.7477,73.5579,1
-86.3489,25.5989,86.3489,123.0648,-233.9106,29.2753,233.9106,284.135,-15.686,41.3788,37.9789,92.2563,1
-84.1198,21.4075,84.1198,120.8442,-208.7763,29.2277,208.7763,251.1628,10.2114,33.1799,28.2672,77.575,1
-76.0295,24.8239,76.0295,108.0601,-187.8734,35.8609,187.8734,238.8608,-8.5192,55.6766,49.7809,92.9966,1
-57.8409,18.1503,57.8409,90.4419,-153.5325,21.4034,153.5325,199.854,14.6774,55.0528,49.7037,111.9395,1
-54.5805,19.4345,54.5805,98.4065,-141.6509,31.7972,141.6509,199.7314,-14.6551,70.3253,63.6151,129.1097,1
-43.1684,15.9391,43.1684,70.8402,-116.2734,23.7071,116.2734,153.347,13.7966,43.4631,36.5963,99.0867,1
-46.5115,26.8276,46.7702,89.35,-110.1018,29.6858,110.1018,149.3477,-11.4688,36.1833,32.7233,69.5155,1
-26.2104,19.8277,26.2104,71.5482,-87.7021,36.2247,87.7021,161.9675,0.7115,35.2607,23.8973,88.4307,1
-38.2597,23.0449,38.59,80.1699,-82.4034,28.4404,82.4034,122.96,-0.4522,73.9159,62.2477,146.4663,1
-21.6296,36.411,34.2929,84.4083,-74.3678,29.6248,74.3678,119.3621,-5.4005,34.0781,29.7433,63.1532,1
-1.3712,49.7811,42.6102,107.7445,-65.6725,91.679,100.334,207.0161,-22.9309,62.5029,59.1544,136.1139,1
43.2899,67.9163,68.7914,141.0929,-19.1491,57.0066,52.6715,103.8539,12.3466,65.9421,55.9757,137.7228,1
-20.181,148.6302,127.3249,250.6003,-87.1963,151.5671,145.3592,334.2441,27.1561,82.6022,77.6855,154.1921,1
124.9149,208.4415,200.1549,540.1785,20.2883,189.4231,158.8964,418.714,65.5999,214.7233,179.0466,449.802,1
1127.332,705.0818,1127.332,2034.4937,530.5803,478.9951,566.1987,1450.3315,184.7146,169.7386,223.1194,390.4005,1
1685.2523,122.0722,1685.2523,1896.2808,1775.8271,101.7813,1775.8271,1964.3567,62.6558,104.6936,93.1111,281.2698,1
1310.8246,94.9508,1310.8246,1474.9675,1427.8623,103.4293,1427.8623,1606.6606,-18.6145,162.1838,136.3901,293.3376,1
1019.5864,73.8539,1019.5864,1147.2603,1110.6213,80.4456,1110.6213,1249.6943,-5.5138,130.1082,97.5772,342.8265,1
793.055,57.4464,793.055,892.3625,863.8639,62.5764,863.8639,972.0381,-193.0968,131.0367,193.0968,462.9008,1
616.8535,44.6821,616.8535,694.0969,671.9305,48.6723,671.9305,756.0708,-239.754,78.2723,239.754,380.0958,1
-2.6043,360.3254,305.7931,655.25,522.6408,37.859,522.6408,588.0869,-190.5092,84.4126,191.4225,333.4204,1
-643.1479,175.3128,643.1479,917.2295,406.5203,29.4466,406.5203,457.4253,-145.445,56.2924,145.445,276.0469,1
-846.0058,242.4704,846.0058,1297.9607,316.1992,22.9049,316.1992,355.7944,-56.4775,134.6573,126.0204,265.1041,1
-1039.9243,180.4308,1039.9243,1317.8013,245.9452,17.8149,245.9452,276.7432,-2.5523,137.7647,118.8983,257.5265,1
-1071.2559,125.0755,1071.2559,1268.8149,191.3005,13.8572,191.3005,215.2559,4.6725,68.1856,49.261,198.6532,1
-1085.3198,144.0352,1085.3198,1316.3311,-516.994,300.251,546.1638,881.0315,32.2467,53.3271,48.7049,119.7169,1
-1027.0778,87.5373,1027.0778,1182.3618,-1139.5879,157.19,1139.5879,1397.5513,78.5085,66.1952,88.5559,201.2778,1
-913.825,94.3605,913.825,1086.7454,-1403.6006,140.1625,1403.6006,1791.1074,28.8456,116.9862,104.9554,232.1049,1
-852.7375,158.4049,852.7375,1132.7367,-1647.5626,115.3523,1647.5626,1828.1553,76.9173,107.436,107.0044,272.9717,1
-637.1675,108.316,637.1675,820.4023,-1696.766,142.4278,1696.766,2011.5811,6.4143,91.2953,70.9614,223.0665,1
-552.2384,103.4705,552.2384,723.0984,-1686.4425,157.6307,1686.4425,2002.3552,68.3815,133.8588,130.0573,300.2203,1
-429.4191,143.1271,429.4191,671.1392,-1554.3545,163.0364,1554.3545,1817.6926,18.2503,89.1226,73.9403,193.6493,1
-285.1158,92.2421,285.1158,553.9149,-1287.1787,82.2274,1287.1787,1475.297,19.0466,88.631,79.5245,157.991,1
-199.3339,111.2038,199.3339,378.6196,-1024.5223,73.9813,1024.5223,1153.5028,10.2049,85.7027,67.4715,201.7043,1
-102.852,99.9362,122.31,236.8588,-797.5082,57.7685,797.5082,897.3727,19.1078,116.3285,107.0644,194.4906,1
-26.4508,88.8843,76.5652,186.7869,-620.3191,44.933,620.3191,697.9958,0.7783,98.8404,79.2178,230.6965,1
90.3769,110.2473,107.1265,356.4387,-482.3392,35.2108,482.3392,542.9162,29.2953,58.0145,52.7029,144.5312,1
41.7365,79.6144,72.4188,188.1144,-352.8379,58.1425,352.8379,422.3315,14.2088,96.0954,78.9349,219.4574,1
161.8318,122.5633,165.1033,396.4635,-222.636,95.0349,222.636,334.1222,47.0462,103.708,96.5054,207.3013,1
136.4627,88.5218,142.9414,286.6683,-138.0135,72.1226,138.0135,274.1591,8.75,62.6457,52.919,134.3232,1
190.6867,81.2464,190.6867,366.9008,43.1206,148.6602,137.1859,247.7355,35.2931,93.874,74.8932,228.4194,1
211.4694,114.3091,211.4694,397.2318,87.9386,149.5777,142.5309,337.2991,-28.1672,102.9496,86.8931,226.7284,1
198.4286,63.6295,198.4286,319.9995,232.2613,129.332,232.2613,431.2708,72.3582,69.6367,81.2287,214.667,1
204.5796,103.2449,204.5796,411.2421,275.8111,186.6422,287.1653,617.3879,-35.2712,88.3713,79.7343,179.609,1
200.9962,93.7948,200.9962,376.7708,353.1368,111.4526,353.1368,552.4084,45.8569,66.5366,56.8407,165.2616,1
225.9984,69.1348,225.9984,330.7006,368.0387,155.8543,368.0387,622.0178,5.7981,57.3224,51.4198,96.0479,1
147.4164,81.8225,147.4164,264.4998,409.2425,111.3323,409.2425,677.261,25.6462,81.9583,66.6263,204.2581,1
154.0808,64.2079,154.0808,247.4717,368.8638,81.9075,368.8638,519.1836,2.6681,56.6266,49.4855,100.2316,1
