m1,s1,a1,p1,m2,s2,a2,p2,m3,s3,a3,p3,label
28.363,19.207,1161.431,72.628,30.357,12.822,1084.506,53.447,11.666,15.145,233.879,41.369,0
17.94,10.22,418.739,37.614,20.75,13.3,502.563,33.85,20.917,14.257,577.913,52.663,0
23.09,10.775,649.272,47.339,23.123,14.188,735.974,53.02,22.405,9.827,598.547,38.629,0
25.301,17.873,959.558,65.609,18.8,14.445,485.169,44.119,11.711,13.707,208.762,31.386,0
29.877,12.51,1049.151,47.586,17.428,13.993,426.283,41.928,12.059,12.481,210.524,34.953,0
17.857,11.56,448.744,36.681,24.218,14.192,774.929,64.225,12.637,17.041,341.894,48.457,0
21.945,14.243,681.058,51.41,20.542,19.297,635.4,53.92,16.025,18.888,378.543,44.101,0
18.094,14.204,448.823,41.712,10.933,10.752,181.826,34.369,21.124,26.968,799.948,66.064,0
11.255,10.71,184.15,29.767,11.558,13.561,190.16,28.008,11.581,15.018,225.6,35.651,0
22.002,14.143,646.428,43.157,6.456,8.568,79.571,22.536,23.997,21.592,838.945,58.754,0
19.479,12.607,527.784,44.927,11.246,13.535,197.348,26.72,20.884,14.454,601.927,44.712,0
17.588,10.624,421.037,38.479,10.076,11.157,154.848,28.198,41.565,12.583,1885.991,59.921,0
25.127,9.239,716.72,45.077,9.771,11.188,145.741,25.654,33.4,11.844,1255.879,52.571,0
17.887,15.841,435.585,35.583,11.086,7.884,167.836,26.722,18.934,16.524,583.699,56.962,0
17.308,9.06,371.236,33.288,8.814,10.316,115.203,23.784,12.35,14.846,243.377,38.62,0
12.156,9.091,219.44,26.02,8.528,9.995,117.702,27.987,16.443,20.157,407.587,47.887,0
25.723,8.961,741.954,43.679,12.411,12.998,220.484,33.109,10.084,12.896,166.376,33.479,0
21.354,10.447,565.114,42.401,13.561,13.833,281.787,40.936,30.484,13.977,1114.244,57.013,0
13.453,9.271,243.164,31.065,8.982,9.668,130.834,27.438,18.262,19.122,533.426,48.808,0
16.43,17.509,466.858,52.969,10.265,12.882,187.684,33.123,19.8,15.836,504.804,37.162,0
15.237,16.367,344.833,39.391,13.381,13.783,282.559,36.197,25.307,13.355,818.811,54.337,0
12.347,15.219,231.62,29.49,13.072,13.696,273.266,35.695,30.763,12.79,1109.941,53.044,0
9.778,9.27,138.252,22.271,9.431,9.011,123.767,24.456,12.38,15.325,240.685,31.116,0
10.691,12.816,168.218,28.052,12.393,10.356,225.809,42.625,12.498,11.297,218.008,28.891,0
9.367,7.691,112.565,19.637,8.058,9.503,104.577,24.87,12.552,13.754,224.171,34.988,0
10.471,11.768,172.287,28.239,10.853,10.805,162.295,24.106,19.899,19.798,562.911,45.939,0
15.98,11.038,340.772,33.813,13.598,11.257,252.394,30.021,16.77,18.625,370.375,33.933,0
8.435,9.686,108.782,28.083,15.589,11.225,318.891,36.491,15.417,18.182,362.312,37.247,0
13.556,11.251,246.863,30.422,11.32,9.049,195.097,26.644,13.616,16.009,321.249,50.594,0
6.137,7.812,61.105,19.129,10.869,10.422,175.748,34.123,24.517,20.9,918.535,57.17,0
8.629,10.424,111.166,21.535,10.89,11.282,168.546,28.838,14.122,16.969,288.903,34.278,0
17.287,8.936,378.687,36.208,14.896,12.875,321.451,36.785,30.478,17.193,1170.768,54.435,0
8.069,9.848,102.908,24.288,9.784,9.436,143.706,25.383,41.669,11.581,1870.457,67.578,0
7.523,8.445,86.118,24.558,8.199,9.35,98.214,21.328,30.729,21.974,1369.822,71.616,0
12.387,14.92,223.251,30.778,10.799,9.198,164.648,22.312,15.107,17.582,327.389,37.44,0
8.809,12.378,169.171,30.839,13.43,15.031,254.147,31.823,15.725,11.858,343.867,35.653,0
11.356,10.819,174.442,23.594,7.055,7.892,94.091,24.355,17.259,16.168,443.983,44.901,0
9.231,11.302,136.721,25.054,7.658,7.707,88.046,21.626,20.395,24.612,653.211,53.737,0
14.764,7.847,279.551,31.155,9.484,11.346,135.76,26.327,16.183,20.174,408.626,51.047,0
8.046,10.913,120.154,34.835,11.848,14.56,212.248,28.165,34.58,13.437,1376.341,62.06,0
8.897,10.99,126.783,23.08,9.085,10.594,120.608,23.026,20.565,14.464,611.858,51.832,0
17.449,19.297,423.884,41.424,10.907,10.406,168.123,28.989,12.794,15.547,290.15,41.979,0
13.068,8.962,239.494,31.52,12.123,8.937,202.467,30.444,17.368,14.303,443.01,41.72,0
19.927,9.958,496.24,38.413,11.197,12.025,217.062,33.032,10.353,12.176,179.908,37.312,0
8.725,9.831,109.863,26.285,9.299,11.39,130.253,27.269,14.138,16.114,326.674,41.552,0
7.413,7.397,87.248,19.983,14.177,10.199,285.065,36.485,17.043,16.354,453.714,53.736,0
9.763,10.337,153.885,26.451,17.559,11.856,422.231,37.042,15.425,17.597,393.384,53.02,0
10.365,12.341,203.806,33.969,9.631,9.469,147.759,25.207,16.05,13.45,341.117,31.944,0
9.501,11.089,162.57,26.396,11.228,12.556,169.956,26.66,13.711,16.349,279.278,36.056,0
7.66,8.508,100.13,28.429,14.365,17.065,303.277,42.215,20.876,17.699,633.535,47.908,0
8.408,10.217,109.29,19.969,10.699,9.437,159.097,24.03,22.062,17.76,660.545,50.456,0
11.611,11.192,193.814,25.999,13.223,15.726,248.529,39.402,29.977,22.259,1394.078,82.22,0
11.572,11.671,246.376,36.529,9.764,12.362,173.575,34.568,22.715,14.824,725.87,52.433,0
12.208,11.156,210.138,27.863,12.877,15.547,272.548,42.39,14.758,16.536,350.382,39.634,0
10.498,11.968,183.586,37.394,10.407,12.511,170.226,31.158,12.647,14.011,308.989,47.451,0
14.206,14.741,295.082,30.718,12.856,14.053,218.55,25.995,17.733,22.161,491.183,58.106,0
15.435,17.035,319.414,29.835,16.924,14.808,399.236,42.425,15.924,19.51,386.402,38.461,0
12.972,15.208,241.254,37.878,11.127,12.281,162.295,23.931,11.493,14.331,205.83,31.65,0
15.236,17.812,317.734,34.193,12.845,10.565,243.265,33.484,15.617,14.856,341.396,38.783,0
13.817,15.68,291.467,36.512,10.583,11.195,186.627,34.139,13.101,13.094,251.864,32.488,0
9.745,11.503,136.699,29.225,10.3,12.969,168.288,30.23,23.555,17.001,744.778,54.497,0
10.452,10.919,171.266,32.893,12.504,14.94,227.216,31.183,18.614,16.948,573.343,59.057,0
12.519,13.494,206.219,26.038,9.211,10.444,136.02,25.844,43.395,14.095,2081.823,82.48,0
10.466,10.909,160.193,27.719,8.178,9.904,98.163,19.102,33.947,21.421,1590.586,80.772,0
9.91,11.792,145.132,30.725,7.805,8.97,96.171,20.901,18.108,18.536,481.969,48.33,0
11.11,12.968,182.176,34.083,9.8,11.44,145.241,27.434,47.407,16.466,2518.495,75.459,0
22.074,26.334,697.936,52.007,11.742,11.293,189.342,27.745,39.643,11.568,1705.43,66.299,0
12.537,8.764,212.611,27.675,12.281,12.184,249.301,32.865,16.205,16.818,402.981,46.618,0
8.313,9.654,98.066,19.626,11.994,11.459,249.188,41.649,13.509,15.124,232.378,32.462,0
12.355,9.964,194.272,23.903,12.661,13.497,237.239,28.623,19.444,13.791,534.863,53.242,0
9.909,11.824,149.048,23.018,11.425,12.94,210.329,32.692,8.448,11.358,132.051,28.893,0
8.222,10.771,126.369,28.321,14.2,16.274,288.665,34.151,19.98,13.216,521.165,38.087,0
8.258,10.473,112.119,23.659,12.481,11.951,224.581,27.243,20.693,13.461,575.049,46.792,0
7.796,9.83,104.781,28.483,15.576,15.565,339.92,40.303,12.525,15.221,238.982,35.885,0
11.069,11.153,193.365,27.239,11.656,10.165,212.816,33.933,12.971,14.943,259.894,31.452,0
17.683,11.62,440.87,41.845,12.211,13.789,203.71,26.431,20.87,17.359,670.26,57.462,0
10.266,10.917,190.813,37.139,20.09,15.774,546.549,48.639,32.88,14.023,1277.741,56.95,0
8.758,10.37,108.789,23.881,15.702,12.348,356.95,35.589,25.557,17.718,907.965,61.462,0
8.005,9.12,88.496,20.154,14.745,10.759,293.47,29.493,37.653,21.47,1824.255,68.035,0
17.911,15.899,496.514,53.5,10.005,12.053,169.422,31.316,14.4,20.315,421.308,59.913,0
9.818,10.592,129.89,20.054,10.016,11.253,137.978,22.64,8.599,10.243,108.736,23.45,0
8.254,9.951,108.044,30.727,13.441,13.779,326.824,47.392,38.627,31.526,2364.204,89.818,0
8.371,10.416,108.502,23.282,16.368,18.041,356.834,35.198,61.965,25.709,4500.588,111.607,0
8.069,9.941,99.358,22.221,9.361,12.076,161.585,31.247,11.586,13.559,194.591,29.974,0
11.738,14.176,201.56,28.571,23.105,27.408,760.078,48.186,11.029,13.671,197.218,35.187,0
13.741,16.155,320.276,40.883,14.578,14.27,318.269,33.188,19.098,15.968,567.376,45.082,0
10.482,11.809,158.884,32.598,6.672,8.99,81.843,27.616,13.244,15.552,241.872,26.655,0
7.742,8.878,88.529,22.787,12.262,14.509,211.387,29.407,13.6,16.893,310.499,44.312,0
10.385,10.954,142.447,25.82,13.621,12.44,267.313,27.621,13.985,16.085,290.261,41.923,0
10.911,12.367,153.281,20.906,10.682,12.715,175.89,23.328,29.046,20.508,1109.628,62.604,0
8.192,8.828,99.231,22.004,12.181,16.537,277.37,42.843,29.377,23.502,1177.037,57.479,0
11.211,12.34,180.874,23.686,9.887,10.747,150.203,24.489,15.856,18.18,380.479,37.972,1
12.781,10.799,248.295,42.097,12.509,14.648,224.779,32.479,11.213,13.518,187.477,27.422,1
16.443,14.153,364.472,32.994,8.429,8.709,114.72,23.131,12.184,15.367,238.551,42.884,1
13.179,12.977,225.84,26.172,10.88,11.915,174.201,30.56,27.389,13.679,937.287,65.068,1
11.605,13.763,190.826,31.189,11.613,12.737,181.644,23.296,27.831,15.614,1018.357,67.279,1
12.389,14.856,240.549,34.899,9.504,11.177,126.609,20.13,31.206,15.208,1193.887,56.384,1
10.403,12.894,166.256,25.399,9.858,11.911,152.563,23.374,20.194,14.502,556.788,47.733,1
11.45,14.326,207.329,34.253,11.145,12.432,171.829,23.264,39.191,11.959,1678.988,64.822,1
14.52,14.947,259.897,33.971,8.968,10.938,120.271,22.027,21.198,15.458,640.766,56.847,1
7.792,9.679,98.474,22.491,10.829,11.938,166.861,28.83,20.915,18.35,640.84,44.529,1
13.407,11.364,276.546,31.968,6.919,8.807,77.562,19.408,21.009,18.626,709.203,61.914,1
16.733,14.363,423.606,39.805,12.29,13.98,245.378,32.284,15.913,15.226,362.598,42.23,1
10.789,10.927,162.131,24.513,11.207,13.971,202.407,34.614,16.611,14.903,422.72,41.977,1
12.941,14.593,221.294,29.946,9.546,9.952,134.952,25.519,18.717,21.285,459.725,38.861,1
9.072,11.051,123.423,23.308,11.836,14.069,197.949,28.649,24.958,11.838,763.021,46.007,1
12.555,12.75,252.084,38.891,7.868,10.01,103.062,23.01,27.355,13.792,938.487,50.043,1
10.413,12.114,165.111,24.306,9.703,11.184,138.541,21.526,19.833,16.768,552.859,47.488,1
9.172,8.804,130.936,24.381,13.508,11.688,279.841,38.631,14.891,16.032,307.806,37.295,1
14.712,13.8,363.433,41.05,10.835,13.998,197.151,28.892,17.464,13.227,369.821,40.343,1
11.791,10.78,212.293,28.091,11.864,15.447,241.706,35.092,24.004,17.843,812.928,50.375,1
13.107,14.28,232.896,29.183,8.922,10.264,105.678,19.955,18.668,16.224,507.598,51.796,1
11.148,10.928,205.478,29.857,10.621,12.776,174.634,29.584,19.432,19.324,578.57,49.186,1
11.434,14.518,210.891,32.22,9.402,11.556,140.417,27.315,12.698,15.564,247.898,34.886,1
9.095,10.018,131.631,29.51,12.763,13.798,205.183,21.373,17.208,16.094,443.389,43.329,1
10.95,9.784,186.402,26.861,15.845,15.569,396.975,44.081,22.851,13.999,706.209,45.953,1
7.196,6.981,79.535,20.333,11.204,11.575,174.199,28.859,19.531,12.975,506.683,44.723,1
8.223,9.987,102.969,22.438,11.128,12.749,182.994,26.213,22.517,16.297,733.827,65.613,1
9.737,12.773,163.267,33.874,5.755,7.951,63.273,22.843,29.378,19.729,1146.158,63.099,1
13.217,12.053,252.508,33.965,11.499,12.346,228.114,36.782,31.321,14.569,1174.171,63.259,1
10.871,13.483,204.778,35.059,8.541,9.379,100.24,19.303,16.612,19.745,523.436,63.157,1
11.956,13.074,221.979,27.99,10.193,11.845,159.998,30.744,23.097,18.264,741.643,50.521,1
12.591,14.954,225.899,32.318,9.648,11.355,130.502,27.184,16.92,16.972,408.544,39.886,1
10.829,8.932,158.294,21.629,8.566,10.43,116.642,28.251,13.554,16.075,260.729,41.167,1
14.042,16.856,288.265,29.849,10.539,13.126,200.303,32.485,18.96,15.129,517.065,46.355,1
11.28,14.364,206.629,34.336,11.696,14.528,232.882,29.934,11.619,11.503,211.619,32.85,1
12.673,12.299,240.117,28.884,12.226,14.813,251.575,39.337,11.888,13.777,211.702,36.318,1
15.573,13.396,312.945,34.141,10.884,11.699,163.094,28.611,18.214,19.796,478.589,47.56,1
14.425,13.951,297.045,38.137,13.909,10.342,271.603,28.336,15.014,17.794,385.907,45.651,1
18.811,14.047,510.383,39.567,15.82,16.109,377.744,40.9,15.52,15.802,384.85,43.539,1
14.608,14.377,303.808,41.752,15.523,12.176,358.642,34.238,29.574,19.556,1188.491,63.938,1
14.177,8.256,266.903,31.513,10.137,11.874,179.04,39.544,34.147,17.082,1457.799,59.816,1
13.378,14.913,288.04,40.023,9.076,10.663,145.391,26.29,28.916,19.018,1105.871,55.278,1
19.109,13.139,524.879,53.479,7.553,9.137,114.976,29.591,38.071,15.067,1676.415,72.526,1
20.118,9.001,485.771,39.643,12.262,12.032,236.141,32.839,33.392,19.537,1496.711,70.742,1
18.732,12.215,467.928,47.141,9.335,11.899,152.852,27.85,22.79,20.001,712.934,66.066,1
21.266,10.754,567.877,47.212,11.89,13.818,191.194,25.298,44.955,21.383,2478.201,82.764,1
37.171,14.892,1603.479,72.452,31.55,32.312,1842.708,81.298,60.753,43.648,5205.361,130.274,1
116.972,144.804,21893.373,278.488,95.137,100.537,12486.894,215.988,69.199,41.092,5684.683,137.474,1
122.593,126.718,22545.07,257.421,199.658,191.33,53149.703,524.002,74.276,79.221,10055.869,229.14,1
193.857,202.527,65945.844,520.279,110.727,126.501,16139.714,288.99,130.32,62.551,20895.855,235.003,1
1046.896,532.202,1379230.75,1954.978,144.653,175.168,33454.727,444.733,153.278,136.477,37416.457,410.817,1
1685.814,122.114,2856879.25,1896.913,225.003,170.841,71957.945,511.334,203.234,136.411,54296.441,430.76,1
1311.261,94.981,1728427.5,1475.459,312.018,134.464,115436.102,566.653,638.957,224.291,458572.688,1041.391,1
1019.926,73.879,1045707.812,1147.643,218.073,147.515,67317.977,432.561,907.405,146.515,844850.875,1202.238,1
793.32,57.465,632658.125,892.66,344.627,159.728,144280.547,645.396,814.23,166.308,690628.625,1130.248,1
617.06,44.697,382761.188,694.329,132.71,148.538,24223.193,268.814,553.785,129.439,323432.125,814.568,1
479.962,34.766,231572.203,540.063,120.009,145.716,21630.582,381.46,267.98,199.934,97435.539,461.858,1
295.626,237.995,109691.477,561.848,112.486,102.394,18592.801,352.494,92.405,111.145,12499.269,216.859,1
781.377,224.465,660934.75,1134.431,200.348,171.219,53406.023,412.306,192.219,138.257,53234.629,475.303,1
1087.784,173.398,1213341.25,1396.776,125.055,78.696,20668.354,269.924,262.99,105.897,80377.914,435.523,1
1237.777,118.162,1546053.5,1486.739,237.063,102.386,66681.844,403.978,341.108,86.556,123846.852,499.918,1
1375.261,130.665,1908417.0,1562.026,221.999,123.794,64608.547,453.11,370.72,70.273,142371.797,542.545,1
1319.577,111.518,1753719.375,1511.386,201.657,124.086,49984.445,322.97,342.985,108.246,129355.602,604.59,1
1191.196,168.204,1447241.125,1390.332,224.303,84.606,57469.949,405.882,277.989,117.179,91008.469,549.06,1
711.543,204.14,547965.812,1186.567,147.468,78.648,27932.453,276.916,253.412,107.331,75737.469,565.349,1
319.368,148.536,124059.141,616.045,209.684,114.946,57180.23,391.999,276.673,79.501,82868.078,450.918,1
151.716,169.483,35431.477,445.799,116.696,106.728,21602.273,369.788,273.477,101.788,85150.328,487.243,1
124.518,136.392,26487.43,437.45,167.396,132.253,36523.25,347.103,288.226,111.702,95551.344,519.43,1
129.154,118.977,23491.187,303.853,131.19,122.074,23373.436,310.289,179.346,103.821,40076.391,286.464,1
212.604,67.177,49713.305,406.638,107.039,110.143,14623.755,195.738,176.054,171.041,40718.578,421.133,1
324.87,98.424,115227.859,462.792,111.865,52.569,15277.349,200.745,71.292,87.51,8204.448,198.72,1
308.889,91.971,103871.383,435.755,163.736,170.1,45765.551,518.428,145.864,148.688,30776.045,375.224,1
349.165,92.774,130522.859,503.45,131.223,113.886,23255.613,241.109,135.092,152.465,23250.695,269.375,1
334.154,62.504,115565.789,428.804,78.888,59.98,9265.287,213.758,141.701,106.922,30014.064,368.869,1
264.102,110.585,81978.852,467.581,72.557,85.068,7314.008,172.089,211.645,148.976,65552.172,482.779,1
241.723,72.119,63630.965,344.983,81.311,78.842,8946.671,213.34,207.324,111.917,55508.48,461.755,1
207.336,61.832,46811.262,312.837,108.111,100.853,16636.262,253.185,200.642,45.951,42368.727,314.197,1
155.02,48.202,26354.553,265.28,111.95,58.29,15801.867,197.405,199.147,97.351,49136.68,436.65,1
151.431,69.694,27788.57,293.929,126.352,61.183,19708.291,231.114,192.3,106.838,48393.926,381.507,1
86.763,88.333,14190.178,271.423,141.617,57.317,23340.518,215.389,147.832,75.917,27617.617,336.836,1
73.375,79.509,7620.527,174.053,135.92,31.058,19438.807,188.244,120.417,92.736,21444.152,296.526,1
94.786,104.465,13821.463,273.833,146.377,63.514,25294.492,264.202,137.822,137.916,26593.293,277.335,1
86.226,77.497,10773.299,222.167,100.691,49.763,12614.954,243.221,92.884,65.744,12492.305,220.738,1
141.667,66.483,24489.535,275.654,117.258,79.649,19842.238,265.893,75.541,62.745,7583.0,157.091,1
180.451,55.754,35670.934,292.623,99.103,57.292,12680.348,196.156,68.753,79.895,7997.041,165.664,1
243.254,109.219,71101.281,423.889,90.801,59.832,11188.355,241.765,83.903,106.012,11283.599,268.118,1
257.557,117.881,80231.5,451.33,98.472,68.225,13014.013,208.739,66.021,71.741,6178.259,163.073,1
260.769,110.537,80219.117,504.195,50.926,43.285,3911.73,132.405,102.324,111.066,14129.638,281.819,1
218.575,50.91,50366.746,301.519,95.077,95.642,12301.23,205.257,101.192,126.382,16366.254,326.521,1
246.405,85.966,68105.453,413.766,69.316,54.519,5640.105,116.849,46.038,37.921,3285.654,130.716,1
161.156,53.885,28874.705,263.823,52.093,62.542,4098.668,139.116,41.141,49.562,2461.952,97.905,1
182.208,60.094,36811.246,292.567,57.24,59.342,4484.341,135.366,47.725,59.889,3687.917,136.801,2
164.658,63.176,31103.439,314.246,72.828,79.657,7492.638,167.559,51.924,63.411,4060.056,137.729,2
145.971,75.205,26963.312,301.789,71.912,84.353,7310.109,197.436,88.261,63.524,9945.929,193.362,2
168.926,60.204,32160.357,256.603,74.503,85.312,8183.564,188.268,114.572,76.202,18095.1,260.537,2
124.62,84.323,20867.734,235.738,31.809,38.953,1517.513,92.615,89.323,46.238,9394.512,162.262,2
174.611,195.643,47426.203,484.005,34.164,36.133,1779.987,85.917,45.245,39.296,3259.951,116.547,2
1274.856,316.581,1725480.5,1559.156,173.976,69.731,35130.172,265.389,104.3,84.631,16474.707,239.142,2
1240.621,89.863,1547215.5,1395.972,249.281,17.439,62444.961,275.732,204.703,48.198,44226.219,276.969,2
964.982,69.899,936075.375,1085.817,406.11,74.033,170406.187,490.21,217.28,77.229,53175.074,389.268,2
750.583,54.369,566331.5,844.572,548.493,84.404,307968.375,649.986,226.529,43.705,53225.375,293.298,2
583.82,42.289,342634.094,656.926,509.94,83.655,267036.875,602.976,235.068,33.142,56355.406,284.152,2
437.49,73.766,196839.078,510.971,220.095,112.048,60996.609,402.136,175.65,36.143,32159.135,249.632,2
542.2,310.423,378247.094,977.272,45.051,54.133,3514.559,138.873,82.666,36.38,7788.58,144.109,2
1203.891,134.536,1467452.5,1385.13,108.18,113.752,24296.805,357.365,56.234,68.119,4659.668,137.406,2
1374.571,31.289,1890425.25,1425.006,404.74,33.775,164954.953,442.415,60.818,53.382,5015.237,145.01,2
1114.527,153.6,1265762.375,1300.013,427.157,38.752,183964.906,510.144,145.66,67.566,25552.859,243.997,2
1012.655,31.043,1026434.0,1073.445,367.639,15.951,135412.641,397.574,154.447,73.14,28848.17,249.179,2
961.362,44.701,926215.75,1028.488,350.484,21.95,123321.078,392.308,146.021,33.045,22414.221,185.053,2
820.552,40.426,674939.625,882.296,275.052,26.925,76378.656,312.527,196.283,23.674,39087.324,248.235,2
695.796,79.183,490402.031,811.43,208.824,30.292,44525.238,267.968,240.348,24.014,58343.676,300.949,2
377.542,127.784,158866.672,582.303,154.995,30.814,24972.953,212.251,271.263,15.576,73826.367,302.321,2
104.344,48.868,13275.648,188.211,112.941,13.505,12938.095,135.246,249.236,17.547,62426.504,288.416,2
34.38,29.743,1414.81,67.981,72.483,20.941,5692.378,123.622,252.256,30.42,64558.5,296.09,2
106.737,28.323,12194.966,154.417,25.691,20.402,902.824,54.746,243.513,17.058,59589.496,278.408,2
146.583,9.61,21578.904,160.766,12.374,15.514,254.966,38.987,221.404,17.078,49311.516,252.739,2
171.405,12.227,29529.33,203.093,15.912,14.297,358.206,40.296,205.699,22.42,42814.656,250.408,2
219.6,14.081,48422.625,239.829,70.596,64.43,5589.851,106.332,179.52,23.251,32768.047,216.444,2
261.367,29.511,69183.844,323.877,55.579,29.512,3959.982,111.669,161.22,16.819,26274.732,192.593,2
385.093,34.912,149515.266,422.115,17.369,20.581,509.146,57.668,138.372,30.676,20087.725,191.064,2
392.534,12.162,154230.641,413.623,39.508,22.461,1946.633,80.858,102.394,23.816,11051.798,137.444,2
348.111,14.732,121398.602,379.795,73.234,15.153,5592.861,102.324,119.204,19.449,14587.856,164.033,2
320.699,12.191,102996.359,339.237,75.349,11.261,5804.281,104.413,109.687,26.167,12716.057,152.514,2
277.039,24.351,77343.773,334.687,76.532,11.952,5999.955,99.213,69.731,18.652,5210.241,110.153,2
220.038,17.568,48725.477,254.328,95.597,19.815,9531.46,124.373,48.939,29.691,3276.617,115.905,2
176.429,19.594,31510.984,207.406,100.16,8.111,10097.773,113.877,23.095,26.031,746.031,47.601,2
141.199,20.922,20374.82,183.743,111.811,20.895,12938.191,150.896,28.217,27.074,1129.686,71.231,2
134.856,11.173,18310.937,153.378,107.25,14.522,11713.534,134.516,18.713,20.895,520.396,53.499,2
136.528,21.88,19118.572,165.56,112.566,15.574,12913.653,137.245,22.613,15.239,722.301,46.357,2
79.569,18.578,6676.411,115.176,109.697,13.165,12206.699,138.389,63.129,15.41,4222.778,98.96,2
51.206,12.957,2789.959,71.904,101.175,10.688,10350.69,120.964,67.756,17.104,4883.38,100.275,2
27.589,11.986,904.813,52.374,86.156,15.159,7652.674,124.838,85.555,29.054,8163.83,142.453,2
17.933,20.152,406.549,40.73,77.17,15.333,6190.377,109.537,96.342,27.493,10037.61,154.254,2
41.354,13.126,1882.471,71.456,68.062,14.852,4852.967,93.753,129.426,21.589,17217.291,169.356,2
40.901,11.87,1813.762,63.62,61.516,15.221,4015.933,105.823,128.505,24.848,17130.969,178.418,2
55.894,14.433,3332.414,75.919,40.737,14.797,1878.483,66.652,184.338,27.796,34753.082,230.148,2
62.233,7.508,3929.328,77.687,40.165,14.255,1816.437,73.192,176.882,23.88,31857.672,221.387,2
52.459,15.478,2991.493,78.411,42.615,20.036,2217.47,85.979,169.885,38.487,30341.982,249.469,2
51.362,19.533,3019.54,88.308,22.052,20.407,804.172,61.387,84.419,40.828,8793.52,159.917,2
116.284,63.734,17584.096,292.333,39.022,34.031,2226.399,104.084,119.003,82.746,20881.648,277.821,2
481.148,205.279,273642.969,861.117,935.745,500.354,1125972.125,1496.856,126.621,87.507,22175.797,270.529,2
850.619,118.778,737660.562,1114.381,1385.743,113.287,1933118.75,1550.452,170.895,139.485,46303.156,536.198,2
962.824,116.186,940529.625,1120.737,1000.628,149.462,1023596.0,1208.64,270.432,189.842,109173.242,665.576,2
647.469,119.559,433510.75,876.509,491.861,181.834,274990.438,811.979,386.353,114.543,162388.844,591.192,2
144.983,180.294,33242.926,391.716,144.547,156.49,26274.318,266.292,424.998,193.313,217992.875,896.01,2
59.695,54.044,5992.24,176.468,390.153,135.876,170681.344,593.359,136.235,166.513,30393.543,453.456,2
228.304,109.407,64092.926,415.177,566.072,55.493,323517.469,690.392,107.606,122.178,18302.168,262.82,2
358.219,65.412,132599.812,457.059,530.444,68.349,286042.688,680.271,108.112,120.932,18606.6,284.774,2
298.617,50.241,91696.578,371.476,1252.312,230.796,1621552.625,1516.97,175.203,200.147,46026.34,399.951,2
116.005,130.395,24468.074,332.74,1137.401,133.859,1311600.5,1320.728,126.855,149.895,23277.857,325.638,2
82.952,81.914,10269.654,218.025,734.826,143.796,560647.312,1002.099,131.416,93.353,25464.893,289.856,2
67.135,61.094,5772.415,123.031,415.276,113.229,185275.187,573.476,199.052,213.498,65508.453,575.112,2
273.499,105.942,86025.062,474.57,175.202,77.28,36667.898,307.102,144.287,125.104,31395.568,351.262,2
381.54,77.317,151551.078,505.031,87.752,104.427,11160.352,215.978,152.089,135.285,34146.559,341.542,2
389.303,47.342,153797.937,447.098,104.524,78.623,14774.131,222.622,144.549,61.846,24719.242,280.478,2
324.261,40.639,106797.031,421.184,177.592,77.185,36855.266,285.054,126.693,113.271,26503.453,345.328,2
264.967,68.12,74847.867,365.591,203.421,55.13,44419.262,301.583,139.847,77.21,25518.633,320.085,2
218.539,52.677,50534.227,299.286,223.459,26.598,50641.559,273.966,104.286,63.96,13778.938,215.936,2
235.956,62.669,59602.859,344.227,248.296,42.645,63469.555,325.032,114.003,106.017,18083.693,250.478,2
358.282,50.375,130903.531,440.958,218.065,74.521,53105.891,316.485,127.902,91.757,24057.432,284.335,2
299.195,47.887,91810.789,404.744,201.209,44.469,42462.555,286.721,77.288,82.68,9613.57,193.959,2
219.668,61.249,52005.645,332.837,185.087,39.302,35801.684,255.138,83.001,100.004,10496.896,211.798,2
106.498,57.382,13626.69,192.56,169.322,47.595,30935.154,261.077,58.519,68.771,6108.998,190.943,2
44.571,51.684,3175.654,120.836,144.974,20.713,21446.439,186.446,29.11,41.659,1789.35,131.614,2
55.987,31.952,4155.459,123.476,112.036,27.439,13304.941,164.3,67.67,83.254,8515.818,233.972,2
127.215,46.355,18332.449,202.744,101.923,23.107,10922.152,154.922,66.564,54.551,6440.492,162.461,2
147.815,35.029,23076.289,235.802,81.52,33.931,7796.891,156.28,69.466,60.629,6768.084,146.632,2
187.043,23.276,35527.035,225.918,72.349,30.799,6182.94,129.658,62.399,85.732,10375.675,360.95,2
199.677,39.077,41397.992,261.764,50.139,24.461,2912.351,80.103,62.375,65.428,6447.161,224.68,2
191.193,30.215,37467.641,255.037,27.376,23.211,968.347,54.495,48.985,51.079,3395.239,124.133,2
209.173,40.048,45356.969,291.208,33.755,37.849,1584.091,82.689,84.603,94.861,11337.644,265.078,2
182.558,34.211,34497.703,252.18,38.46,46.254,2165.018,101.453,57.817,66.937,5140.487,150.654,2
175.815,30.345,31831.607,274.045,21.406,24.099,606.072,48.142,49.074,62.33,3897.947,146.483,2
141.364,33.394,21098.785,205.449,42.075,51.69,2672.243,116.688,96.308,118.327,14638.665,279.465,2
107.699,24.304,12189.804,160.869,27.419,33.709,1227.307,76.516,70.483,94.469,8947.952,266.615,2
69.222,32.311,5835.75,146.917,23.911,28.844,846.781,58.909,42.039,46.447,2425.471,74.489,2
65.161,35.663,5426.701,142.657,44.331,55.087,3167.229,140.411,69.344,81.718,7683.245,169.412,2
55.386,29.305,3926.31,142.867,31.606,34.018,1539.4,100.778,75.311,91.906,8502.559,194.94,2
44.921,23.875,2587.907,90.362,29.082,36.42,1336.074,99.771,123.471,140.401,19829.137,253.297,2
61.187,64.939,6253.393,197.637,58.063,60.318,4378.265,142.064,64.923,77.712,6051.873,153.761,2
42.911,24.512,2375.011,104.263,38.744,46.306,2213.796,88.864,111.323,121.61,15860.363,233.163,2
39.014,32.363,1989.858,79.219,40.301,45.807,2988.383,136.7,122.176,150.381,22623.977,334.285,2
34.786,35.88,1978.598,83.088,47.908,35.167,3490.31,127.068,48.696,48.287,3354.572,109.521,3
35.23,31.818,1836.938,87.621,57.27,44.537,5058.009,134.707,34.171,45.313,2061.028,109.539,3
24.472,26.704,1016.976,83.699,67.238,60.526,6768.151,181.276,109.12,134.059,18491.232,337.571,3
28.54,23.622,1120.412,51.512,51.591,41.024,3608.009,101.217,84.945,96.801,10202.841,226.253,3
33.058,28.517,1461.356,67.64,19.261,20.656,604.317,69.628,49.933,62.253,4105.272,159.727,3
19.798,24.374,604.001,53.214,24.265,27.326,966.29,70.556,97.48,105.603,12055.414,197.505,3
16.886,17.963,399.662,39.207,15.833,12.301,308.95,30.044,51.444,43.846,4136.66,165.465,3
56.781,19.723,3613.029,91.384,30.126,18.889,1256.411,66.577,31.252,25.723,1479.597,69.984,3
42.536,31.085,2590.424,85.964,72.044,27.747,5960.158,112.597,71.187,46.294,7001.195,136.233,3
44.445,21.837,2383.811,76.596,54.974,61.807,3821.201,118.863,80.557,25.575,7143.487,109.901,3
203.285,101.695,51666.5,391.834,617.802,329.635,490338.688,1049.138,123.877,23.458,15895.863,179.514,3
420.352,19.1,177060.437,459.232,924.532,93.904,863577.5,1051.349,114.898,24.068,13780.813,160.365,3
382.965,32.728,147733.062,437.826,557.547,102.067,321275.75,726.05,106.578,19.129,11724.756,137.161,3
279.997,34.209,79568.602,347.808,236.214,80.409,62262.48,368.863,29.781,31.807,1534.336,91.946,3
159.958,33.371,26700.043,207.179,51.987,57.713,3337.811,102.899,13.422,14.318,279.946,38.349,3
52.194,25.223,3360.426,102.84,155.614,38.175,25672.998,211.435,36.048,18.734,1542.641,67.594,3
19.745,17.99,539.299,51.223,255.114,29.801,65971.062,312.012,70.67,22.773,5512.841,110.155,3
70.915,20.847,5463.477,106.232,320.782,12.279,103051.859,345.007,91.213,20.22,8728.718,136.367,3
115.361,15.221,13539.87,142.133,342.139,9.905,117157.156,366.077,95.376,24.174,9681.021,154.336,3
125.842,11.983,15979.88,154.287,333.062,10.095,111032.172,359.649,60.907,13.153,3882.712,89.19,3
150.136,9.635,22633.711,168.477,313.263,13.242,98309.062,335.567,36.037,20.135,1683.133,75.55,3
144.798,13.199,21140.668,176.683,278.891,22.011,78264.398,323.195,48.275,14.466,2539.776,80.504,3
119.951,12.755,14551.048,145.983,248.837,15.803,62169.5,277.548,52.031,16.829,2990.429,93.653,3
111.93,8.635,12602.983,134.511,214.628,17.43,46369.074,250.195,38.348,12.383,1623.902,60.429,3
83.882,9.728,7130.756,103.772,172.519,21.58,30228.48,215.698,18.484,15.941,468.986,42.725,3
66.645,15.682,4687.531,87.924,134.201,13.411,18189.73,156.167,23.425,22.944,695.633,53.11,3
57.683,13.112,3499.244,85.124,97.992,13.936,9796.721,123.552,14.195,17.103,327.653,44.397,3
47.567,9.697,2356.652,74.687,67.301,17.045,4819.942,106.671,19.95,21.511,564.99,51.244,3
32.023,8.654,1100.383,46.816,35.286,13.23,1420.148,60.533,11.314,15.404,240.709,42.047,3
25.831,9.816,763.581,45.024,8.336,10.094,114.116,29.773,22.006,16.103,724.494,52.13,3
13.98,10.201,267.832,35.541,11.679,13.616,192.327,24.915,16.089,18.111,333.914,33.427,3
38.358,16.464,1710.334,70.019,11.442,7.992,182.424,27.636,34.769,14.757,1426.635,65.422,3
18.071,16.452,531.075,54.318,22.155,14.084,689.185,50.804,66.555,28.365,5234.158,114.561,3
19.051,12.557,497.497,39.351,32.061,10.007,1125.867,47.235,59.936,10.926,3711.698,74.583,3
22.387,9.077,583.591,36.745,30.355,11.556,1054.954,48.945,39.399,23.863,2058.826,81.506,3
23.12,8.98,615.204,35.798,26.763,13.36,888.75,53.46,28.405,11.481,938.647,49.292,3
20.314,15.36,582.081,47.089,28.825,15.96,1085.051,59.157,24.262,26.406,817.593,65.787,3
10.818,13.14,187.796,31.877,32.202,13.001,1205.972,65.861,17.613,15.696,429.388,45.22,3
10.421,10.903,151.535,25.335,45.881,9.797,2201.047,60.551,37.938,20.488,1712.776,74.481,3
20.945,8.172,505.499,38.594,51.209,13.085,2793.557,81.629,31.125,12.612,1127.838,53.383,3
33.579,9.494,1217.67,50.915,47.621,7.488,2323.872,64.611,38.222,17.406,1763.927,70.969,3
28.126,9.633,883.883,45.684,50.062,11.301,2633.927,72.296,24.924,20.352,920.846,61.65,3
38.964,9.146,1601.828,54.613,42.868,10.039,1938.437,59.512,16.655,15.445,415.8,35.908,3
37.51,11.146,1531.196,59.563,46.871,9.333,2284.022,62.869,13.432,14.684,253.186,33.752,3
42.896,9.563,1931.508,58.236,45.144,9.588,2129.908,62.395,16.696,18.943,388.356,40.541,3
27.295,9.677,838.68,50.32,45.545,11.009,2195.537,67.186,15.27,17.936,385.925,48.246,3
18.437,12.783,391.529,29.616,39.173,12.287,1685.511,57.315,26.692,22.307,858.414,51.267,3
62.463,52.231,5503.485,146.051,56.086,35.568,4335.066,117.636,16.5,12.502,392.632,38.951,3
87.361,117.73,15348.215,363.569,44.407,60.455,4188.829,229.675,32.449,23.304,1508.805,77.205,3
171.661,200.064,40780.273,395.573,157.588,189.323,37232.895,356.825,65.168,47.068,5614.895,133.652,3
126.265,139.803,21103.779,320.671,294.351,88.067,94398.078,393.486,61.341,39.102,4875.235,108.825,3
94.014,108.476,11786.838,185.457,289.371,40.424,85369.492,365.232,45.686,48.177,2666.103,102.973,3
185.702,210.269,47486.195,419.081,153.565,115.127,32340.297,291.388,63.37,42.058,5618.687,164.625,3
387.494,153.759,173793.141,611.581,278.582,225.021,125098.422,644.017,113.212,81.991,19114.713,324.25,3
270.58,157.048,95617.297,545.366,546.733,77.244,304883.531,682.1,126.081,127.173,19743.4,243.787,3
163.356,150.431,46362.336,409.843,774.594,142.725,620366.312,1005.672,89.752,101.832,12010.461,240.246,3
128.684,151.724,23378.404,237.96,792.08,109.703,639425.312,994.978,117.171,109.402,21104.537,294.514,3
135.631,135.621,25636.182,367.357,1063.689,180.564,1164038.5,1422.341,89.002,85.056,10497.679,171.466,3
93.483,112.964,14729.327,252.633,992.798,257.864,1052142.5,1418.514,84.609,87.21,9150.959,174.107,3
84.291,102.813,10658.737,218.417,466.518,149.846,240092.984,735.207,56.798,61.909,6280.462,195.487,3
87.702,101.086,10614.687,224.122,136.789,123.602,25461.631,270.594,76.086,50.988,7232.773,148.77,3
43.887,57.964,3452.904,134.284,186.921,79.525,41263.539,368.457,47.497,29.192,2950.645,90.684,3
56.773,68.845,5883.502,217.008,384.487,68.637,152541.562,506.075,38.518,47.172,2225.365,105.098,3
75.276,61.115,7194.241,157.745,525.765,39.551,277993.031,612.602,44.64,52.951,3500.877,133.083,3
142.436,101.157,30520.703,367.294,570.296,42.998,327086.063,633.547,50.115,53.864,3447.778,120.75,3
133.802,51.984,20605.424,228.847,587.764,38.02,346912.406,659.158,36.111,43.577,2183.361,107.139,3
150.52,55.099,25692.244,279.991,556.766,59.479,313525.75,656.526,51.802,53.577,3503.592,114.186,3
88.624,56.676,10910.193,205.413,518.274,43.001,270457.406,596.415,43.586,53.134,3391.983,109.208,3
92.902,69.442,12743.352,239.746,457.9,62.121,213531.5,579.998,59.323,68.564,5554.985,150.964,3
81.355,62.444,9775.613,188.623,422.896,42.471,180645.094,497.986,51.044,55.274,3655.276,111.371,3
42.771,41.896,2800.527,117.232,369.708,33.757,137823.203,427.797,47.898,55.89,3158.183,118.147,3
57.837,59.475,6503.999,203.217,330.028,60.992,112638.328,398.653,56.535,69.125,4913.75,136.215,3
48.043,56.809,3227.506,128.002,281.97,39.663,81080.258,371.805,45.041,50.816,2793.967,110.706,3
36.282,44.576,2282.365,115.52,230.931,37.227,54715.105,286.831,50.691,58.399,3499.116,117.277,3
62.267,70.164,4964.107,139.892,180.293,50.338,35039.488,252.2,43.243,51.9,2700.585,106.197,3
58.053,53.804,5146.434,153.08,183.585,47.743,35982.934,257.837,58.396,77.586,6023.894,180.893,3
294.112,77.363,92486.547,424.473,198.537,30.13,40324.879,280.013,74.646,69.439,7152.306,157.813,3
469.736,58.303,224051.187,604.476,133.589,38.187,19304.209,214.014,62.297,61.205,5034.868,132.507,3
427.496,119.427,197015.297,584.512,94.493,63.071,11113.116,178.152,55.835,62.067,5066.94,183.891,3
117.985,119.985,27754.277,425.222,27.318,29.474,1143.411,86.144,44.978,55.851,3130.15,121.013,3
72.445,68.402,8136.876,227.104,43.774,34.832,2744.664,121.246,49.594,55.081,3581.639,123.43,3
213.016,63.775,49443.23,304.654,51.011,47.662,3846.336,166.652,86.702,87.054,10692.406,217.117,3
252.919,60.659,67647.422,366.665,64.922,56.12,6143.553,172.819,65.148,74.357,6623.54,207.97,3
285.405,76.855,87362.477,387.319,67.443,33.845,5693.998,120.776,52.517,64.769,4195.117,151.719,3
253.652,102.121,74768.141,385.544,100.528,56.877,13340.929,239.277,67.368,60.729,6315.099,157.748,3
254.484,31.828,65775.383,302.831,104.803,42.901,12824.155,178.038,46.1,51.5,2871.58,99.955,3
246.0,41.717,62256.172,344.328,126.974,27.153,16859.621,182.863,63.587,72.385,5243.294,141.671,3
187.001,104.352,45858.965,365.103,126.596,45.596,18105.457,197.242,63.704,76.191,5824.591,144.974,3
131.969,41.281,19119.846,205.675,130.078,31.446,17909.252,192.28,66.348,74.786,6114.692,141.076,3
74.17,54.904,7982.264,173.443,117.81,33.57,15006.23,160.097,52.547,60.371,3928.0,133.691,3
127.47,61.66,20050.543,234.447,94.001,80.982,13444.527,235.369,67.982,80.894,6603.539,177.894,3
109.932,62.007,15929.872,216.683,22.146,27.117,860.896,54.474,38.969,42.563,2422.979,93.978,0
93.78,43.348,10588.603,171.864,29.449,30.813,1087.438,51.199,47.693,55.955,3224.69,129.997,0
66.148,50.596,5895.436,144.104,34.643,29.37,1572.806,63.123,52.309,63.755,4078.262,161.73,0
38.002,42.398,1848.82,71.938,51.184,19.924,3016.806,88.077,55.174,62.248,3915.158,118.745,0
71.429,49.849,6370.358,157.089,65.4,34.552,5389.978,135.459,40.515,46.849,2292.297,105.93,0
71.078,33.018,6142.248,147.072,59.639,20.643,3982.976,98.978,26.758,28.642,987.156,69.94,0
77.438,11.983,6140.269,98.786,50.658,10.941,2685.92,78.852,31.92,21.446,1324.264,72.921,0
45.817,29.05,2446.729,78.945,63.048,77.666,8370.324,229.854,10.403,12.62,160.979,31.456,0
263.154,96.56,78573.727,356.665,287.036,37.821,83820.234,348.827,17.933,21.973,495.197,45.877,0
258.594,46.539,69036.836,317.754,49.611,68.761,5514.897,213.216,24.145,24.83,997.831,80.932,0
138.167,40.919,20764.525,209.909,298.817,131.634,106618.852,501.828,20.583,23.472,649.749,54.273,0
51.801,74.971,6713.66,241.256,473.291,41.346,225713.859,524.987,30.318,27.345,1530.378,84.83,0
350.639,52.679,125722.641,445.674,251.694,78.184,69462.375,359.677,47.119,36.454,3426.651,131.48,0
601.344,121.782,376445.375,785.856,68.41,75.728,6022.068,124.263,17.775,20.671,462.195,54.129,0
1052.885,118.073,1122508.875,1201.972,159.193,25.816,26008.873,207.271,16.379,19.803,452.194,43.721,0
1008.486,92.555,1025610.562,1155.305,229.773,26.137,53478.629,279.323,15.5,18.059,341.46,37.294,0
614.835,119.35,392266.125,800.224,295.32,23.228,87753.398,329.167,12.586,14.205,230.222,30.111,0
251.879,99.09,73262.133,438.615,347.874,14.642,121230.672,372.617,31.505,7.632,1050.815,48.137,0
68.254,84.116,7650.74,160.016,369.388,15.548,136689.203,406.564,48.371,15.103,2567.85,90.56,0
194.639,35.182,39122.098,250.355,338.783,30.111,115680.828,371.822,59.49,22.13,4028.786,94.378,0
274.027,43.757,77005.453,329.803,270.625,31.173,74209.5,330.187,49.808,16.587,2755.933,87.978,0
299.138,15.537,89725.109,315.856,182.162,24.776,33796.695,226.856,40.849,19.21,2037.628,80.884,0
317.415,29.495,101622.5,355.804,114.565,30.563,14059.162,169.869,13.073,16.411,269.349,37.357,0
301.859,23.975,91693.5,342.456,57.644,16.946,3609.954,92.662,13.242,15.744,304.403,45.191,0
295.697,24.438,88033.969,335.566,32.725,11.472,1202.546,58.283,14.506,16.446,335.492,36.463,0
288.567,29.156,84120.961,337.37,17.703,14.557,462.495,48.359,44.304,13.175,2136.399,68.978,0
268.544,27.476,72870.82,319.467,11.142,12.176,233.998,42.604,35.632,19.855,1661.956,69.35,0
260.3,13.804,67946.703,288.702,12.409,14.903,222.097,31.162,47.732,16.748,2558.789,73.024,0
204.347,24.801,42372.641,256.033,14.117,17.116,322.562,47.35,48.543,19.984,2755.842,79.655,0
180.85,26.899,33430.141,225.273,12.235,13.439,195.157,26.362,28.748,25.632,1155.214,56.555,0
127.707,19.591,16692.957,159.091,13.692,13.083,254.808,32.25,12.897,11.803,257.229,38.938,0
88.275,22.21,8285.831,131.222,20.962,15.334,663.777,57.617,19.537,18.7,636.624,52.131,0
66.958,21.278,4936.081,96.742,26.804,21.747,961.965,57.947,26.016,11.211,802.535,48.626,0
42.146,14.606,1989.64,64.623,15.704,17.439,340.069,32.627,27.363,17.621,1043.723,72.458,0
38.714,18.888,1855.506,66.371,11.031,11.298,189.793,31.911,12.44,10.36,235.633,39.102,0
20.333,18.867,565.872,43.573,12.312,14.61,220.692,31.165,11.886,14.489,241.056,35.598,0
18.579,21.224,477.462,56.333,14.004,15.99,280.755,33.701,26.533,17.257,836.527,46.954,0
26.365,28.438,1031.85,66.66,10.775,13.296,228.123,38.346,13.54,16.481,300.709,34.938,0
16.287,9.082,336.705,30.734,15.439,19.131,405.385,44.377,21.77,23.109,679.45,65.602,0
24.205,21.202,889.853,67.911,14.944,16.676,321.981,40.069,12.364,16.354,267.701,36.905,0
16.893,9.217,354.976,29.937,13.419,15.419,249.333,32.983,10.636,12.617,165.696,30.704,0
24.617,23.789,886.173,55.036,17.994,18.37,515.829,44.307,11.021,13.778,205.836,33.518,0
32.654,13.24,1241.593,61.376,17.901,17.327,414.332,35.755,12.829,11.315,274.766,41.832,0
17.254,10.024,365.322,30.333,10.086,11.643,167.685,27.629,14.308,17.11,352.187,46.529,0
35.826,24.253,1797.035,81.835,17.381,19.063,498.555,52.333,9.522,10.052,148.308,30.859,0
18.254,16.717,473.788,38.412,12.409,15.872,256.891,44.433,17.086,12.346,421.124,41.276,0
34.011,13.754,1345.927,71.684,10.322,11.907,182.386,32.83,31.805,15.634,1255.999,67.038,0
24.669,12.0,706.164,49.435,13.146,17.208,338.817,40.48,15.054,12.258,323.41,36.333,0
34.42,15.185,1415.292,58.023,12.245,11.897,243.563,31.785,14.209,15.597,287.192,35.308,0
43.529,19.831,2288.011,94.632,15.716,12.287,313.503,32.96,9.642,11.157,139.68,25.891,0
32.933,16.207,1323.784,60.905,16.698,13.733,367.339,30.156,15.536,12.269,317.825,33.45,0
41.931,8.953,1838.344,57.467,11.768,9.978,203.143,30.214,9.691,12.326,151.96,25.555,0
43.565,15.461,2136.992,82.644,22.819,13.475,655.543,49.897,9.539,10.447,126.826,22.964,0
32.126,19.086,1396.321,82.358,24.336,22.733,765.084,59.561,13.289,14.407,269.703,44.12,0
41.633,18.683,2082.367,75.494,9.757,12.255,150.562,26.726,15.47,15.935,317.767,38.183,0
36.93,16.873,1648.526,70.877,12.661,14.793,303.302,47.624,13.184,13.557,283.454,34.138,0
29.832,16.148,1150.704,74.128,11.934,13.142,207.04,30.985,17.329,14.855,418.555,44.739,0
28.175,22.69,1221.935,71.803,18.858,15.551,499.619,41.584,20.594,22.873,614.899,53.487,0
12.251,12.314,261.49,41.686,15.161,16.531,329.006,35.119,21.887,16.952,675.934,50.878,0
15.359,13.909,363.756,40.346,16.269,15.789,434.176,44.313,17.991,11.036,422.018,43.093,0
14.916,16.515,276.412,28.085,10.474,12.284,151.01,28.219,15.63,14.434,428.4,44.136,0
13.585,15.437,245.86,32.079,16.495,21.229,469.959,48.461,11.819,13.616,194.362,30.843,0
8.197,9.973,111.79,26.998,11.861,12.322,196.915,28.025,10.421,10.226,169.054,29.036,0
13.081,14.913,238.906,29.026,14.433,16.05,275.347,34.946,17.177,13.923,421.892,41.898,0
12.259,13.155,202.948,24.327,13.46,16.377,278.349,29.54,16.507,11.948,350.58,33.677,0
17.891,19.042,590.157,47.297,12.299,14.696,222.56,33.102,31.136,11.666,1105.537,57.626,0
10.295,12.359,157.667,27.441,6.37,8.335,77.456,24.317,10.818,12.679,174.378,26.094,0
13.12,15.913,254.045,35.213,12.16,15.165,278.593,52.167,11.365,14.629,215.639,40.718,0
16.969,20.959,448.706,50.134,11.776,12.375,192.88,36.153,22.589,22.372,610.309,44.949,0
10.621,11.834,190.948,38.59,14.224,15.908,282.257,34.676,29.277,11.371,986.432,46.311,0
18.894,15.894,549.526,54.227,16.174,15.965,390.862,41.06,10.633,11.875,156.453,30.602,0
24.509,23.493,801.915,48.223,19.028,22.803,551.36,53.464,16.229,16.954,420.626,46.47,0
25.463,13.343,788.902,41.408,12.782,14.343,211.186,24.932,33.43,15.217,1329.181,56.941,0
23.016,22.134,743.364,57.199,15.601,16.47,364.459,41.42,18.861,13.868,501.338,40.068,0
17.707,23.359,546.117,55.847,16.317,19.47,391.021,48.765,15.895,11.389,379.068,34.482,0
9.182,10.238,124.977,25.721,18.17,12.647,457.756,38.401,26.248,14.694,904.898,50.749,0
22.139,12.761,649.355,52.964,12.65,13.137,201.446,25.687,16.468,19.085,425.628,44.368,0
24.202,10.034,686.431,43.286,13.082,11.247,256.321,38.195,9.799,11.473,143.507,28.444,0
14.391,11.35,299.388,33.323,19.84,20.627,563.374,55.583,15.269,17.709,358.818,41.584,0
10.659,11.878,150.855,23.798,16.073,12.758,358.086,36.599,13.73,12.107,320.522,47.168,0
14.27,12.333,296.859,38.58,14.635,12.723,294.86,31.087,17.872,20.42,454.447,52.861,0
16.369,21.431,505.446,59.827,16.757,13.556,379.594,37.291,16.228,17.628,340.636,40.149,0
12.027,11.238,222.865,33.722,12.645,12.569,230.027,33.818,15.379,17.842,395.564,55.751,0
8.126,10.433,109.796,26.896,15.13,10.242,285.48,30.244,16.198,14.776,388.853,46.958,0
9.199,10.969,120.509,30.461,13.31,12.898,277.88,40.479,19.913,20.292,563.734,46.593,0
10.072,12.03,147.6,24.874,10.838,10.331,182.03,28.046,51.268,54.819,4691.471,152.282,0
12.649,14.491,210.808,32.627,10.79,10.927,182.536,31.969,146.225,18.667,21730.107,179.686,0
11.734,11.88,203.988,29.178,11.414,13.227,178.179,27.645,113.252,20.875,13261.838,153.057,0
9.472,10.129,133.774,28.57,10.349,14.465,209.254,30.88,53.057,20.896,3251.699,104.004,0
9.92,12.158,150.476,24.796,9.38,11.275,132.737,23.073,28.941,33.133,1102.275,67.304,0
9.133,10.449,109.999,19.715,10.942,11.56,186.415,26.344,33.977,18.775,1474.536,64.992,0
7.547,9.655,93.337,27.139,13.493,14.102,304.29,39.837,81.227,16.56,6872.034,115.58,1
15.48,16.08,334.458,33.713,19.669,23.57,556.665,43.133,81.033,11.002,6687.364,102.808,1
14.314,17.899,331.925,37.106,14.249,17.292,299.339,37.46,53.836,16.964,3186.142,83.295,1
9.941,9.885,129.665,21.825,12.726,15.44,279.508,44.443,66.757,11.64,4591.952,92.047,1
9.692,11.603,136.776,21.028,19.908,13.708,534.851,40.211,65.952,11.571,4483.52,92.334,1
12.564,12.569,228.661,30.656,22.412,10.068,592.027,38.616,40.351,18.569,1973.022,68.071,1
10.76,13.908,197.379,32.523,15.577,16.793,326.091,31.628,17.903,11.588,421.331,37.875,1
9.162,10.45,120.939,24.578,11.619,14.07,198.077,29.583,17.667,21.945,488.528,50.801,1
10.397,10.407,152.31,23.454,11.618,14.052,216.491,30.528,20.037,13.914,583.151,52.755,1
10.054,11.189,155.785,35.218,21.36,15.557,618.874,51.292,36.256,17.364,1616.01,73.033,1
12.304,13.37,180.108,23.639,32.537,18.546,1328.118,66.243,36.392,14.171,1525.225,61.368,1
10.085,10.35,145.274,27.009,38.913,12.308,1665.749,62.353,31.778,12.03,1154.555,66.734,1
9.762,12.199,149.604,27.982,16.404,15.675,449.331,58.301,37.258,13.961,1583.072,60.221,1
8.576,10.951,120.822,25.906,15.011,11.59,325.524,38.844,17.419,20.638,437.728,36.997,1
14.143,16.725,283.362,36.818,10.615,12.954,168.797,27.984,21.931,12.671,603.485,47.751,1
12.758,12.437,228.955,28.229,10.514,12.175,150.68,22.486,22.881,19.832,752.638,55.793,1
8.161,9.739,94.898,22.719,15.177,12.583,318.808,37.566,60.122,19.541,3996.531,101.287,1
11.455,11.061,190.377,27.744,13.684,13.201,263.571,32.231,57.191,14.705,3487.068,84.388,1
9.03,10.368,120.616,21.379,12.081,12.011,190.478,25.467,33.256,10.734,1221.213,52.285,1
14.712,15.042,331.647,33.999,21.467,16.932,650.1,47.935,24.776,17.706,853.448,60.625,1
16.631,17.157,357.787,37.577,18.49,19.385,446.254,37.753,10.017,12.314,154.864,25.99,1
13.877,12.275,267.827,34.772,20.26,10.344,517.456,40.789,11.177,13.751,189.965,29.734,1
9.301,11.73,137.941,26.209,28.516,11.994,957.048,50.323,7.832,9.652,96.801,18.411,1
12.351,14.985,247.584,37.335,20.278,11.842,551.439,45.749,9.091,9.573,112.957,18.814,1
13.145,12.48,301.386,42.298,19.035,14.128,509.136,44.761,12.508,13.291,211.222,25.637,1
11.318,14.064,226.369,37.593,11.83,11.61,221.126,29.483,9.703,9.66,138.672,26.319,1
9.078,11.255,143.276,30.691,8.485,11.39,130.974,32.1,12.991,14.513,225.5,31.833,1
7.713,10.005,100.165,20.847,13.72,13.388,271.439,41.904,18.479,15.825,471.85,36.877,1
6.958,9.186,85.347,25.537,18.129,20.657,477.967,43.885,17.741,16.512,453.047,45.823,1
10.53,10.378,150.331,24.283,19.547,18.979,506.756,42.473,15.516,9.686,306.709,31.211,1
9.674,11.305,143.562,23.459,11.257,13.536,186.826,26.024,26.411,13.293,874.244,54.471,1
10.257,12.226,151.221,26.741,11.179,12.876,225.184,38.284,21.827,16.069,639.466,62.101,1
10.512,10.814,166.079,28.351,12.149,14.558,229.623,33.086,12.943,17.1,295.129,42.395,1
10.881,12.444,181.911,30.626,11.567,13.004,238.679,35.216,13.012,17.255,304.368,43.066,1
8.072,9.484,104.845,20.134,16.112,16.885,371.98,36.212,14.895,14.047,324.929,37.355,1
10.061,11.286,139.496,23.372,13.929,11.204,292.94,32.773,28.858,12.634,992.397,52.448,1
12.851,14.694,242.08,27.993,22.4,15.886,675.553,48.627,26.588,11.876,847.964,55.338,1
13.277,11.683,242.934,30.801,11.305,10.731,175.928,25.115,16.423,19.17,435.843,43.888,1
9.634,11.89,149.773,32.203,13.495,16.338,320.36,43.777,18.144,20.119,633.625,62.865,1
8.094,9.211,102.135,21.915,15.149,18.109,351.07,41.345,20.557,17.243,623.643,52.686,1
15.027,11.852,313.102,30.667,10.363,13.472,182.445,34.561,40.403,16.562,1906.688,69.783,1
15.927,18.025,402.037,44.06,11.773,15.334,237.559,34.313,21.931,24.403,704.582,54.909,1
8.876,9.879,116.864,29.335,16.39,13.654,358.264,33.12,11.074,13.359,179.109,28.911,1
15.303,18.097,329.395,37.353,31.977,20.476,1435.286,78.23,20.884,26.101,744.772,84.438,1
41.454,48.097,2355.119,90.706,36.038,41.671,2087.267,106.01,75.209,86.495,8404.09,177.016,1
115.22,103.579,20084.133,283.082,96.036,64.358,12487.957,191.591,30.633,35.613,1563.857,91.489,1
411.024,164.539,196013.375,620.886,165.087,69.464,32079.053,254.643,50.31,57.993,3686.682,122.686,1
656.965,398.958,570333.187,1410.787,97.226,119.579,14529.844,230.763,122.966,136.78,19496.082,239.399,1
1909.966,109.917,3660051.75,2112.064,188.214,169.244,50543.914,497.184,129.249,152.493,26732.283,369.459,1
1519.877,110.094,2322147.0,1710.198,1161.913,267.744,1421729.125,1698.705,186.495,190.61,41799.832,369.626,1
1182.192,85.634,1404911.5,1330.228,878.061,191.882,807809.625,1120.806,96.361,118.617,14073.836,238.257,1
919.533,66.608,849978.375,1034.678,435.834,194.775,227888.844,883.118,160.839,163.358,33824.191,354.96,1
715.232,51.81,514241.375,804.795,225.574,230.074,74896.547,653.214,170.995,142.906,36144.121,304.694,1
556.322,40.298,311118.375,625.986,186.301,152.413,41897.352,388.236,129.195,161.841,29047.715,400.356,1
429.155,40.558,185818.594,486.904,290.025,121.587,98898.109,442.211,107.193,128.722,18416.65,248.651,1
210.891,227.966,57703.895,361.795,294.863,166.011,114503.781,610.248,116.366,135.487,28395.01,473.445,1
394.854,358.577,211675.219,837.414,355.76,220.166,156944.437,658.028,281.186,148.143,99093.547,489.825,1
750.505,189.183,599048.25,1037.204,361.745,150.171,153410.984,647.271,175.087,101.245,39523.129,344.997,1
1112.834,96.286,1247670.125,1269.709,333.659,121.599,126114.453,581.506,136.658,142.281,26775.098,347.498,1
1195.059,150.781,1450900.5,1430.291,268.535,93.384,80831.469,467.015,59.283,57.304,5480.967,166.887,1
1202.441,162.385,1472234.25,1410.499,209.266,178.5,69360.766,565.772,55.574,69.772,4949.093,146.476,1
1159.77,187.334,1380159.625,1397.491,187.882,136.809,45697.746,366.227,98.0,113.805,12953.492,222.143,1
1063.38,156.79,1155361.125,1372.486,143.47,95.871,27396.4,267.33,68.892,80.413,6652.646,166.872,1
933.516,165.808,898944.187,1206.636,142.011,127.476,31934.814,390.159,88.522,99.578,11201.589,198.739,1
798.422,149.303,659768.312,971.441,113.66,127.236,18069.162,317.247,66.582,74.25,6038.836,145.96,1
684.421,253.714,532803.375,1102.772,82.392,78.704,11122.598,237.837,50.302,40.177,3775.541,117.061,1
630.537,161.334,423605.594,910.937,125.824,154.147,23789.648,331.711,75.559,77.88,8625.815,167.648,1
406.834,122.595,180543.703,681.216,76.589,84.032,8199.076,177.678,107.861,102.328,15444.648,256.607,1
298.997,162.014,110746.57,515.364,86.542,105.832,11232.81,242.791,61.315,60.971,5969.634,175.967,1
257.802,190.784,96732.508,618.026,121.216,154.817,25199.449,393.926,117.462,138.881,20339.57,318.727,1
214.466,181.149,58788.156,464.413,85.604,92.764,10239.394,220.407,69.119,64.034,8480.95,239.917,1
132.52,103.584,27344.412,353.657,90.099,113.484,13196.943,294.774,101.991,74.244,13747.169,216.15,1
179.915,196.074,40809.219,315.047,98.272,118.117,13961.213,241.809,106.874,88.295,18980.955,270.498,1
160.348,207.328,44282.059,483.79,98.232,126.226,16370.097,291.487,153.197,47.351,25711.408,247.07,1
174.548,176.357,39823.633,367.769,100.458,105.663,13946.108,208.927,160.359,35.363,26965.516,249.067,1
103.337,130.046,16912.314,281.675,91.614,109.844,12102.575,241.171,130.065,58.953,20392.475,253.643,1
158.519,184.344,48605.078,572.629,101.713,117.924,13978.518,232.393,122.405,63.922,18420.727,223.276,1
219.788,172.414,78033.609,634.461,68.75,88.279,8247.304,233.058,92.269,45.524,10502.522,172.63,1
297.409,168.65,116895.0,644.262,89.423,111.972,12945.287,289.138,76.327,81.178,7811.457,153.708,1
336.605,142.884,133718.953,621.199,72.73,106.081,11491.059,266.812,51.519,63.653,4244.061,157.483,1
322.007,206.82,146463.141,708.049,121.755,145.213,24940.482,424.082,67.57,72.97,8786.588,273.041,1
364.835,114.026,146106.891,626.723,80.49,110.754,13040.232,329.569,39.393,47.982,2607.112,109.734,1
261.153,140.232,87866.047,582.204,48.17,56.934,3241.622,106.653,72.402,59.833,7685.743,160.202,1
320.382,109.286,114587.789,587.775,66.613,56.804,6264.938,132.353,54.164,58.41,4698.458,135.539,1
248.74,133.51,79696.727,512.844,102.678,109.465,14664.57,250.646,26.322,27.126,934.413,64.082,1
215.799,130.807,63679.41,457.225,133.008,148.917,25637.047,298.113,56.112,56.831,4617.142,137.673,1
258.732,106.025,78183.523,448.24,77.291,83.068,9716.237,195.559,58.721,67.489,4884.954,147.227,1
165.205,107.264,33101.113,268.256,79.682,89.879,9194.809,222.599,90.167,70.867,12036.595,239.709,1
237.028,187.183,77378.867,501.409,101.195,122.701,15824.777,268.802,76.028,103.792,11046.83,238.445,1
172.37,89.247,37676.352,350.273,95.854,113.859,13738.786,276.15,87.735,98.208,11247.794,218.194,1
139.482,133.736,35401.449,440.427,88.252,104.26,11392.156,217.294,92.49,108.372,12071.597,223.567,1
159.865,91.479,33780.012,359.938,94.0,112.906,12766.803,217.382,77.174,93.297,9144.623,211.611,2
99.724,85.295,14995.11,249.887,86.429,107.145,11488.974,223.172,69.911,83.064,7205.243,163.39,2
108.28,118.28,21926.074,352.246,59.926,75.273,6672.615,237.013,49.836,55.524,3335.733,109.651,2
98.558,137.09,21319.463,343.578,46.498,41.879,2890.95,98.112,65.756,77.965,6302.381,188.078,2
147.337,170.749,29696.678,362.384,93.699,137.977,24145.664,413.992,42.987,52.873,3030.63,128.083,2
1218.731,503.523,1738841.25,1734.47,610.378,97.015,381973.375,727.857,27.874,23.599,1273.189,86.815,2
1380.118,99.97,1914720.125,1552.937,676.025,46.922,459211.875,738.398,81.387,34.466,7811.811,150.437,2
1073.486,77.759,1158418.125,1207.908,494.829,58.984,248335.312,580.282,69.939,30.685,5832.997,127.687,2
834.98,60.481,700850.375,939.537,330.843,40.833,111124.57,378.41,74.184,47.632,7438.39,159.283,2
649.466,47.044,424019.188,730.792,167.554,51.042,30679.547,230.551,75.156,61.169,7871.885,180.811,2
505.168,36.592,256534.156,568.426,76.317,93.309,9860.847,208.01,69.82,32.505,5904.087,116.391,2
235.03,265.436,75193.219,442.134,356.574,89.856,135219.203,462.741,37.996,30.992,2344.052,114.012,2
905.194,213.215,864836.937,1166.196,305.943,22.413,94103.437,343.219,35.465,21.836,1652.598,75.195,2
1225.73,19.54,1502795.5,1256.171,367.919,15.903,135616.937,388.022,20.607,26.256,689.51,56.181,2
1149.599,59.964,1325174.125,1238.965,395.239,37.203,157597.594,460.069,35.273,34.307,1739.085,82.838,2
1102.692,33.305,1217038.875,1181.507,482.863,41.614,234888.5,534.878,44.81,29.567,2482.031,83.628,2
1001.864,42.232,1005515.125,1076.038,541.694,26.961,294159.188,599.354,65.909,26.753,5059.786,104.136,2
816.726,31.415,668028.375,879.032,451.473,29.301,204686.094,502.203,79.91,27.329,7132.563,139.957,2
655.562,72.417,435006.125,772.86,333.02,40.988,112582.398,416.929,66.084,26.533,5071.123,127.667,2
489.553,42.08,241432.797,560.832,216.194,46.627,48913.953,307.832,59.784,40.598,4760.549,125.132,2
340.204,42.686,117561.039,415.455,114.487,37.709,14529.294,176.628,63.631,14.366,4255.274,101.891,2
212.616,18.621,45552.363,255.008,35.819,20.362,1697.639,73.344,47.042,29.884,2971.977,103.534,2
129.927,38.235,18342.961,200.025,26.845,23.27,946.342,64.912,26.653,15.184,911.707,54.123,2
37.146,20.985,1796.321,69.678,65.361,15.612,4515.859,88.275,45.715,28.737,2890.948,94.529,2
24.057,30.492,1141.571,78.205,103.096,24.76,11241.771,136.318,63.908,20.065,4486.815,97.544,2
98.836,15.145,9997.926,126.563,122.352,11.387,15099.679,139.653,33.913,22.219,1566.916,71.188,2
130.946,43.503,19039.219,204.287,122.553,30.961,15977.839,174.568,18.198,15.912,504.705,49.616,2
163.907,17.48,27171.068,187.427,118.569,22.212,14551.921,152.332,18.741,15.782,587.002,66.301,2
185.771,15.933,34764.887,211.516,115.644,19.863,13768.188,165.365,20.272,20.99,623.823,53.47,2
221.45,10.122,49142.578,242.652,129.863,20.96,17303.676,167.871,14.512,17.941,321.909,44.783,2
217.38,35.18,48491.82,267.958,120.911,19.258,14990.353,157.7,17.6,11.184,375.828,33.896,2
209.998,28.503,44911.523,242.948,99.761,15.726,10199.626,130.038,14.006,13.49,304.172,34.917,2
213.642,21.569,46108.23,256.039,105.505,23.767,11696.142,146.577,23.881,14.135,704.841,44.105,2
188.163,21.753,35878.457,222.107,82.805,14.691,7072.524,111.834,17.274,18.579,420.648,39.602,2
166.484,25.589,28371.592,196.92,63.337,16.54,4285.083,93.715,37.549,22.161,1813.036,87.936,2
142.4,16.242,20541.568,165.793,59.745,19.892,3965.128,98.555,40.437,17.816,1952.555,68.623,2
110.943,33.652,13440.875,175.339,45.213,16.473,2315.613,72.821,46.739,13.628,2370.298,75.267,2
79.811,17.897,6690.088,114.757,46.7,20.611,2605.74,86.119,30.421,23.234,1193.488,72.191,2
61.129,30.169,4478.405,95.656,30.483,24.452,1302.14,72.063,19.896,17.612,535.165,40.112,2
56.278,20.176,3574.299,93.933,18.437,15.765,499.157,38.305,15.401,18.435,343.081,38.838,2
50.975,25.726,3260.344,86.143,17.89,14.028,477.22,45.816,24.898,25.217,948.106,67.1,2
38.691,14.592,1709.926,78.071,17.565,19.406,413.927,41.302,14.726,16.929,350.445,51.884,2
35.022,24.527,1733.53,67.345,12.566,15.342,248.27,32.922,14.046,14.846,236.809,27.076,2
33.682,16.445,1404.93,60.954,19.051,21.756,481.163,39.771,25.931,23.737,858.27,51.242,2
25.881,23.481,1094.003,67.502,16.626,20.149,425.54,44.022,37.255,14.933,1610.929,68.213,2
25.283,30.589,956.186,65.222,29.669,34.062,1174.117,65.545,39.612,26.973,2255.848,95.056,2
43.659,49.724,2678.002,89.909,28.023,29.242,1481.967,115.774,40.021,30.85,2323.995,97.771,2
30.024,20.703,1236.328,62.773,36.889,25.552,1977.491,103.727,23.449,26.674,983.375,75.47,2
17.575,20.823,505.862,46.856,146.921,38.668,23081.09,217.482,42.017,54.571,3352.773,140.673,2
45.944,42.807,2834.156,101.105,209.885,41.364,45762.547,280.414,61.712,37.987,5251.399,163.197,2
54.98,27.837,3765.948,115.59,217.321,32.312,48272.555,271.074,71.017,35.393,6296.049,142.072,2
51.792,37.989,3539.444,113.66,302.08,73.176,96607.047,474.208,176.843,72.039,36463.137,436.22,2
49.663,43.589,3340.957,135.921,810.901,184.673,691665.5,1032.246,193.764,67.31,42075.227,428.888,2
345.448,56.504,122527.078,437.407,804.486,54.905,650211.5,897.479,304.517,85.791,100090.867,503.548,2
221.363,38.719,50500.547,277.451,530.306,90.088,289340.469,665.656,196.85,89.742,46803.34,359.449,2
142.601,157.143,25186.43,299.14,223.528,96.079,59195.684,348.431,131.228,151.947,29036.863,397.474,2
101.023,48.153,12524.33,184.95,85.34,81.894,9251.485,160.235,113.972,128.244,17597.545,259.016,2
52.14,58.762,3797.567,113.955,190.482,57.564,39596.953,291.181,160.487,147.763,35635.816,346.837,2
273.318,103.76,85469.187,402.808,300.421,68.81,94987.523,453.765,195.566,159.318,52079.395,407.517,2
328.894,63.77,112237.602,480.001,366.171,41.258,135783.734,460.966,183.677,167.899,42404.059,390.418,2
210.449,65.751,48611.945,327.635,405.737,44.232,166579.125,478.537,135.152,117.89,26233.055,340.253,2
124.021,44.053,17321.834,207.151,423.472,89.841,187400.125,630.833,228.356,258.015,70854.609,429.099,2
159.756,52.733,28302.787,232.146,406.579,49.211,167728.297,482.992,189.796,202.161,49264.926,478.613,2
75.922,83.399,10579.317,273.341,414.251,66.431,176016.547,541.937,132.02,124.731,29454.937,446.107,2
92.287,62.399,11148.813,215.052,372.145,81.757,145175.766,557.681,188.539,200.391,50589.836,412.421,2
225.494,44.915,52865.094,314.869,338.849,82.799,121674.641,524.567,190.545,172.882,45110.797,392.77,2
294.489,36.49,88055.391,359.862,316.217,75.453,105686.609,467.392,147.876,160.574,29701.623,322.882,2
320.139,36.475,103819.359,384.56,233.981,61.145,58486.016,378.958,183.544,193.324,46328.184,399.629,2
304.393,35.92,93945.203,351.594,192.179,36.133,38238.473,282.202,117.249,99.836,17326.172,268.199,2
281.934,27.652,80251.562,329.65,134.523,39.435,19651.488,213.303,105.561,103.092,15935.639,234.13,2
267.254,43.654,73330.297,349.512,86.33,43.534,9348.177,152.17,105.655,104.369,18576.221,325.394,2
222.291,33.677,50547.648,281.032,52.476,52.043,4272.135,164.684,104.128,123.66,16481.357,257.284,2
174.76,31.539,31535.658,238.066,58.16,70.878,5105.399,156.311,62.916,69.249,5384.346,174.521,2
151.679,45.898,25112.992,226.211,46.725,53.605,3229.506,123.215,66.222,83.847,7184.341,218.868,2
143.593,32.452,21671.967,216.069,58.615,41.947,4616.496,136.656,89.373,104.106,13424.287,269.461,2
115.419,35.364,14572.165,174.618,70.059,51.699,6141.808,135.289,97.313,120.998,14643.14,278.368,2
99.262,23.781,10418.52,140.524,70.695,37.989,6199.226,125.693,66.902,77.429,7107.025,166.907,2
63.821,33.649,5182.521,117.814,44.087,26.906,2468.482,76.574,56.638,79.813,6450.483,203.592,2
39.808,32.15,2331.665,87.6,53.228,34.048,3849.525,105.444,70.609,72.293,8204.915,199.698,2
28.987,36.12,1418.987,85.964,66.551,20.657,4855.773,101.693,63.242,67.718,6654.131,169.227,2
24.783,32.23,1062.443,75.73,83.419,40.897,8231.524,139.667,93.375,100.737,12504.019,254.661,2
31.409,18.256,1319.835,70.394,66.55,30.303,5347.132,131.815,52.388,50.413,4769.416,150.028,2
52.591,27.667,3530.22,117.729,64.991,26.605,4931.596,117.269,63.749,65.336,5329.137,125.036,2
80.761,17.309,6821.904,110.467,50.804,25.722,3242.68,104.233,77.711,80.956,8481.058,163.7,2
85.28,28.567,8088.685,149.674,60.053,45.998,5167.091,129.465,112.922,132.437,17720.748,290.943,2
76.242,27.37,6561.989,119.341,47.193,44.114,3466.147,113.568,131.179,120.726,22400.932,253.848,2
67.068,36.164,5750.601,136.58,56.55,53.249,5467.771,167.78,127.686,146.657,24168.967,365.702,2
76.891,38.377,7385.0,140.376,53.722,42.378,3464.687,92.212,96.882,107.35,15418.934,295.475,2
43.038,42.207,2383.297,80.279,44.852,53.632,3067.954,139.852,115.544,128.357,18333.387,228.913,2
34.334,41.074,1746.724,114.177,71.614,85.055,7327.97,164.659,123.731,143.543,24330.168,327.307,2
39.709,39.087,2218.312,109.674,43.406,55.681,3816.529,145.872,103.618,127.35,17849.721,338.107,2
53.994,52.258,4314.271,150.994,136.623,135.692,27567.662,317.189,122.078,151.558,24793.102,393.186,3
71.829,41.4,6873.313,167.99,470.274,101.95,231550.953,712.433,110.422,138.34,19266.168,297.77,3
63.941,31.088,4850.424,113.449,547.146,77.208,305329.688,697.249,144.44,184.705,34740.918,382.517,3
73.756,26.041,6118.169,127.89,335.102,78.039,118383.172,509.123,128.749,165.07,30852.76,409.653,3
70.458,43.283,6530.134,161.982,152.508,117.136,36743.781,427.586,117.032,140.044,22361.49,375.035,3
52.436,34.174,3917.358,163.785,49.059,59.228,3870.782,120.862,120.566,73.562,19783.922,269.946,3
30.204,16.857,1145.196,71.003,144.298,41.398,22535.723,195.527,106.474,24.247,11924.52,136.582,3
27.676,22.768,1119.686,59.182,595.38,355.539,480885.188,988.433,130.578,18.434,17390.371,159.334,3
72.52,78.097,8931.135,242.652,917.309,91.661,849858.312,1080.081,90.256,16.131,8406.352,129.883,3
22.536,26.518,756.533,58.366,871.793,103.587,770753.625,1103.28,107.79,18.923,11976.73,137.266,3
67.131,20.784,4938.478,108.472,1031.49,53.365,1066818.375,1096.207,86.185,16.276,7692.739,123.432,3
107.265,24.208,12091.912,152.892,690.172,97.245,485794.406,840.314,66.857,24.272,5058.981,119.143,3
123.217,45.724,17273.029,181.53,344.895,107.316,130469.102,522.24,29.176,18.539,1073.498,54.077,3
117.919,19.798,14296.821,154.406,111.873,57.661,15840.369,193.105,41.969,26.881,2229.326,98.908,3
191.73,68.992,41520.109,258.973,47.942,41.493,2817.136,117.473,63.071,15.754,4226.171,109.611,3
158.89,45.296,27297.615,212.955,133.028,21.512,18159.354,174.88,58.938,14.328,3678.936,81.942,3
128.071,36.369,17724.822,183.598,232.318,17.84,54289.734,266.893,50.045,12.396,2658.172,75.173,3
44.254,34.08,2805.462,102.006,282.12,34.757,80799.922,346.216,71.494,18.723,5461.896,103.747,3
38.461,38.633,2427.542,96.371,310.536,27.949,97213.703,385.554,86.81,14.22,7738.25,121.65,3
55.098,32.004,3986.052,107.081,337.67,16.106,114280.539,363.189,92.378,17.064,8824.959,132.855,3
100.05,34.798,11220.854,167.945,329.624,16.557,108926.008,358.32,94.406,23.735,9475.782,136.25,3
125.615,16.531,16052.457,152.483,299.604,9.878,89859.906,323.776,60.174,12.322,3772.722,81.923,3
150.86,27.936,23539.225,217.998,280.54,9.531,78793.766,304.325,37.064,19.755,1764.052,80.202,3
169.968,33.509,30012.135,216.797,246.533,22.447,61282.496,282.522,21.971,25.481,649.704,49.027,3
188.52,18.035,35865.176,230.831,208.247,19.704,43755.051,258.22,16.019,13.474,335.229,39.457,3
162.865,14.934,26748.168,197.452,178.666,18.613,32268.088,212.317,13.131,14.332,248.934,30.396,3
133.785,21.138,18345.318,171.752,143.077,16.83,20754.346,167.623,14.304,17.163,295.809,42.299,3
115.113,19.02,13612.711,153.599,111.225,18.019,12695.716,138.185,15.349,18.178,335.063,41.333,3
69.973,21.345,5351.777,107.437,84.943,20.026,7616.442,119.936,21.694,22.134,626.069,54.046,3
36.648,21.846,1819.398,97.58,66.459,25.248,5054.27,132.959,63.823,37.947,5513.32,124.331,3
20.099,21.298,659.762,60.488,40.978,14.841,1899.463,68.789,106.806,20.22,11816.463,141.385,3
18.329,17.615,445.056,37.161,31.504,21.46,1390.195,67.137,60.312,17.144,3931.437,99.948,3
27.771,30.609,1221.546,79.338,13.287,15.905,256.81,31.921,53.682,58.632,3603.451,95.594,3
45.26,15.479,2288.11,72.61,10.145,12.592,164.34,30.808,87.078,11.647,7718.257,112.246,3
57.459,48.063,4132.312,118.621,25.886,27.437,844.049,49.564,43.008,28.778,2643.713,95.86,3
45.566,23.733,2478.617,73.464,24.219,20.831,787.587,58.584,26.552,18.07,1018.835,71.733,3
56.07,36.611,4182.67,107.179,24.278,25.23,951.107,77.621,15.923,19.551,479.288,54.417,3
60.427,22.219,4145.089,106.108,32.912,16.793,1365.163,69.799,12.239,15.157,238.52,37.038,3
58.34,31.074,4251.42,94.664,25.626,13.435,837.17,46.826,16.821,15.756,409.196,49.636,3
48.058,30.814,3109.819,97.514,26.216,13.705,869.236,48.542,14.418,18.289,334.594,40.761,3
31.912,20.435,1285.101,67.032,41.402,14.893,1935.916,79.925,11.979,13.847,234.094,32.353,3
44.6,34.155,2677.403,105.322,45.722,18.573,2435.457,85.434,17.973,13.724,480.459,50.219,3
27.238,29.918,911.156,54.181,49.456,18.281,2780.099,77.461,22.584,17.741,736.171,55.036,3
42.793,43.139,2440.261,80.666,42.179,17.912,2099.93,71.933,34.106,14.114,1362.471,60.91,3
46.986,47.302,3326.173,136.175,60.213,36.065,4856.516,118.429,38.45,9.953,1577.445,62.16,3
60.677,64.335,5353.095,168.5,70.747,86.676,7603.797,164.515,53.417,30.002,3753.545,110.837,3
159.959,174.733,38883.773,395.357,291.852,121.938,100046.328,486.803,102.367,45.721,12569.464,164.973,3
277.267,101.997,87280.531,440.751,209.708,80.724,50493.949,338.017,71.538,27.212,5858.15,127.227,3
114.659,114.547,18083.18,257.317,128.415,114.931,19426.848,233.415,40.551,30.83,2579.154,100.655,3
111.375,148.536,22486.475,370.579,100.457,56.707,13307.331,242.473,24.137,28.237,1316.763,105.372,3
156.245,183.052,40501.711,448.231,291.026,120.373,99185.859,478.406,27.521,28.549,1224.748,102.339,3
248.862,160.859,86083.719,533.954,537.048,68.363,293093.906,643.443,36.139,35.343,1739.99,81.62,3
176.95,97.558,40828.664,417.403,575.748,62.56,335399.313,691.189,44.086,40.936,3390.679,145.422,3
128.498,109.899,24795.273,306.282,524.144,72.672,280007.938,725.693,60.0,40.02,5201.587,156.646,3
235.087,92.952,63906.09,380.659,1109.773,149.308,1253889.75,1321.122,68.12,64.15,8352.478,242.648,3
228.671,172.524,75665.539,461.244,990.037,176.485,1011319.812,1218.145,37.581,37.626,2205.501,113.599,3
180.651,139.019,47979.656,433.861,577.104,147.491,354802.375,868.336,57.892,64.986,4852.914,154.168,3
86.593,75.395,10521.628,208.419,261.989,127.385,84865.352,537.276,87.612,85.43,11509.183,233.874,3
79.608,102.439,10988.385,240.055,82.455,83.226,12112.883,252.1,86.5,64.421,11134.34,210.249,3
149.645,154.538,36577.094,401.438,335.584,83.485,119586.437,479.161,64.079,57.905,7020.045,188.907,3
122.013,83.391,21456.939,263.021,478.831,59.743,232848.594,578.997,77.961,86.438,9037.381,193.501,3
113.883,100.268,21918.387,375.505,574.854,71.502,335569.875,709.613,69.274,98.346,9762.595,239.495,3
114.674,63.468,16981.768,287.406,618.302,51.75,384975.094,704.507,56.541,56.293,4788.883,141.93,3
140.199,125.148,29920.832,355.586,644.835,62.322,419696.719,768.002,89.843,77.615,11688.754,218.554,3
119.417,125.588,21457.064,292.157,588.193,88.881,353871.25,761.852,75.0,79.677,7440.06,194.532,3
111.56,142.411,25728.225,493.464,565.533,69.975,324724.094,688.745,79.299,70.687,10627.435,237.202,3
65.646,76.647,6789.027,212.907,519.732,59.396,273649.094,658.342,104.298,110.662,16758.398,256.606,3
79.926,86.111,8338.379,161.349,441.782,71.665,200307.406,537.722,58.198,59.172,5741.435,159.914,3
79.609,92.009,10979.289,201.407,358.004,58.267,131561.984,466.003,106.391,126.76,16072.751,280.216,3
86.877,109.297,12665.11,230.318,283.767,42.665,82344.07,364.244,80.644,97.68,11311.42,281.49,3
90.871,100.141,11812.229,228.485,227.812,67.691,56480.309,336.053,108.757,133.461,17841.5,270.437,3
86.049,80.496,10040.532,184.256,150.695,44.763,24712.568,239.953,100.23,106.991,15059.532,232.909,3
84.182,104.643,11680.947,232.724,119.903,31.359,15360.134,182.472,73.368,87.039,7611.851,166.637,3
90.854,94.604,11416.99,198.585,82.02,58.995,9534.855,166.686,104.235,111.723,14041.247,209.899,3
111.051,132.766,17655.561,296.685,70.677,82.288,7364.349,191.874,99.679,118.44,14500.225,279.476,3
69.727,77.8,6643.436,194.431,63.793,65.51,5406.284,118.581,135.216,123.211,24104.613,267.851,3
91.297,107.407,11536.935,231.598,63.505,49.41,5574.959,146.991,128.931,153.451,23578.145,315.937,3
61.718,75.326,5749.659,166.625,81.148,77.555,9810.215,201.094,129.496,146.149,21424.752,273.485,3
96.551,109.409,12771.182,214.882,97.119,46.791,11621.461,237.084,72.222,81.593,7102.259,171.432,3
59.605,76.918,6030.083,200.332,98.724,33.899,10895.581,156.086,83.644,97.203,10672.278,186.914,3
52.527,50.283,3734.726,102.497,97.991,31.925,10621.488,169.093,104.308,114.667,14535.14,233.882,3
62.143,78.019,6171.112,170.042,73.349,50.4,7861.632,194.15,67.065,81.85,6834.239,215.666,3
62.596,52.606,5123.126,141.758,74.005,53.079,6657.55,127.944,119.018,141.301,19969.338,303.599,3
102.211,70.684,12012.878,188.799,69.296,62.77,6127.031,125.344,82.547,96.819,10285.778,192.888,3
88.799,93.934,11317.736,203.286,54.589,35.054,4148.457,124.171,66.859,73.175,5862.385,171.439,3
91.384,99.487,11164.6,225.043,36.417,40.219,1679.466,84.786,55.888,65.826,4359.182,151.857,3
84.634,88.565,9053.784,174.323,28.828,28.039,1072.264,56.082,55.467,66.674,4536.832,133.813,3
66.635,88.241,8222.824,213.795,58.968,51.452,4832.351,158.587,78.778,93.745,9151.138,212.109,3
97.901,127.883,16661.588,350.93,61.302,50.264,5166.995,143.925,90.033,113.976,14593.554,320.693,3
60.217,75.311,5957.292,171.553,73.583,61.296,7908.415,186.06,74.68,63.856,8234.575,179.075,3
54.502,61.257,4176.769,118.205,67.053,47.004,6705.531,174.468,54.907,55.236,4879.472,183.083,3
70.621,79.712,9326.712,262.948,102.995,45.678,12694.447,162.288,35.703,34.888,2116.492,146.603,0
62.462,49.467,5885.744,178.483,91.903,32.744,9518.287,151.93,69.038,70.131,7875.411,185.803,0
97.273,89.634,13311.017,225.567,113.633,38.299,14379.344,189.346,38.798,46.877,2866.214,129.699,0
69.891,45.719,6680.311,176.439,91.61,50.864,10979.491,201.25,39.26,49.289,2923.643,133.135,0
48.777,70.531,6710.894,219.342,75.492,53.699,7171.516,149.737,64.595,69.685,5825.685,135.848,0
40.436,51.601,2664.492,136.959,62.948,54.863,4448.145,97.864,88.643,16.923,8144.02,125.329,0
16.52,18.232,381.669,37.008,177.558,56.336,34700.715,285.027,78.474,17.958,6480.664,108.006,0
25.181,17.773,766.955,42.969,351.041,41.927,124987.906,439.38,42.528,27.355,2509.695,78.618,0
23.426,17.75,718.638,46.651,502.182,37.989,253630.422,559.54,53.5,36.289,3849.358,103.995,0
143.796,74.677,26254.143,242.339,442.677,76.538,201821.078,574.78,50.729,21.945,3055.06,84.564,0
279.428,27.625,78843.102,321.146,541.732,63.474,297502.375,615.588,34.618,32.869,1795.189,91.031,0
217.089,53.117,49949.148,288.641,283.684,70.744,85481.469,389.384,29.704,33.058,1286.662,69.772,0
122.407,74.053,20105.633,241.731,188.417,69.904,40387.398,273.665,34.341,17.025,1459.818,65.335,0
172.465,74.918,35356.84,296.976,72.328,54.551,6610.536,128.204,28.811,16.263,1036.039,61.837,0
420.297,62.173,180515.406,533.89,235.525,36.202,56782.391,294.536,38.295,20.045,1868.319,72.767,0
608.786,27.61,371382.281,658.986,354.062,38.301,126827.117,437.514,34.788,24.477,1641.25,73.589,0
526.897,39.488,279180.031,578.701,397.405,24.361,158524.484,438.263,27.982,24.596,1162.547,67.214,0
366.52,46.98,136544.297,436.799,425.831,22.671,181846.062,473.878,20.104,20.989,605.308,67.609,0
206.717,45.363,44789.836,282.689,419.579,23.949,176620.047,462.602,20.806,23.871,609.594,49.113,0
84.447,19.103,7496.175,128.736,390.22,15.064,152498.937,424.991,21.952,26.217,699.668,53.656,0
35.575,40.776,1670.377,65.293,367.771,24.26,135843.953,413.983,20.149,27.898,783.482,91.33,0
59.854,49.386,4599.522,128.546,337.701,30.901,114997.133,389.5,40.018,35.727,2523.419,92.894,0
122.277,15.202,15182.643,155.668,264.66,14.28,70249.094,288.444,35.09,31.906,2223.421,102.215,0
175.301,32.579,31791.83,235.748,217.297,27.816,47991.75,257.445,54.84,36.878,4292.869,107.334,0
311.138,42.698,98629.852,370.833,158.536,21.686,25603.957,201.553,30.669,17.608,1201.829,56.859,0
303.811,27.346,93048.859,342.373,96.374,22.52,9795.064,135.482,49.749,24.774,3088.726,97.295,0
235.858,41.36,57339.672,312.465,49.312,18.54,2775.437,100.735,32.82,16.688,1355.617,72.242,0
158.822,29.551,26097.717,199.357,28.825,12.557,988.572,53.681,35.968,16.868,1538.773,66.05,0
98.198,34.299,10819.338,152.782,13.357,11.155,243.915,26.909,33.551,16.034,1347.839,63.579,0
66.879,16.699,4751.703,108.566,15.58,14.16,332.296,31.397,26.182,22.604,876.428,59.891,0
44.612,12.69,2151.248,71.538,19.571,11.208,502.5,39.84,25.477,21.525,904.6,70.726,0
37.004,26.083,1662.264,72.916,36.228,13.596,1497.31,61.992,24.417,18.084,919.015,54.126,0
18.39,20.262,613.207,60.973,48.751,20.603,2801.136,93.791,20.923,11.501,519.35,40.031,0
19.233,23.306,548.386,45.889,57.968,15.647,3605.092,87.084,16.764,16.187,381.629,41.227,0
19.924,19.241,712.245,65.027,74.254,13.718,5701.829,93.776,19.404,16.193,542.199,46.824,0
9.511,11.111,134.367,26.872,77.311,12.802,6140.842,107.631,42.043,17.09,2059.71,78.353,0
26.594,31.714,1091.126,63.82,66.319,17.52,4705.202,105.432,30.384,18.834,1193.749,55.776,0
22.603,15.166,710.459,58.39,62.902,14.087,4155.064,84.884,27.885,15.867,1013.496,54.396,0
15.872,18.61,415.68,41.693,62.829,17.505,4253.96,87.174,43.206,13.288,2043.365,64.887,0
14.792,16.602,318.045,34.529,72.006,12.732,5346.944,92.371,60.073,13.039,3778.734,82.909,0
23.884,27.238,831.737,65.27,66.467,14.005,4613.987,98.136,46.72,18.845,2537.923,83.233,0
11.643,15.452,239.231,41.201,57.342,9.768,3383.513,74.751,27.96,14.194,976.485,61.866,0
10.478,10.687,194.594,39.997,53.734,17.67,3199.579,79.355,15.947,13.325,376.707,41.219,0
22.572,31.161,1277.443,92.601,43.46,14.002,2084.813,68.202,23.716,13.212,714.002,47.955,0
16.535,14.691,414.313,40.519,37.805,19.782,1714.549,65.131,21.896,17.25,724.045,52.189,0
28.196,28.619,1258.813,74.144,39.808,16.041,1842.011,72.244,30.371,8.752,999.001,45.708,0
13.727,14.872,304.249,42.797,29.454,11.429,998.136,49.81,56.4,17.155,3475.225,99.93,0
18.075,20.855,590.937,69.413,26.504,18.709,939.823,56.172,56.768,15.481,3462.296,95.387,0
20.333,21.718,795.032,82.451,28.539,18.366,1031.684,60.045,36.162,20.834,1729.851,73.475,0
20.954,24.535,602.962,48.416,37.502,20.97,1846.119,87.6,25.237,21.651,957.346,64.128,0
10.204,12.879,206.873,48.532,19.711,13.747,539.596,40.28,11.343,14.127,219.56,46.338,0
16.679,13.586,400.627,36.52,16.645,18.443,374.177,35.272,42.581,14.228,2015.593,65.41,0
12.442,14.125,280.42,43.757,12.541,13.506,270.828,37.838,15.019,17.478,329.487,37.365,0
22.211,25.043,875.004,79.542,20.12,24.047,587.052,53.393,15.298,16.698,374.69,37.774,0
17.223,19.196,471.109,49.019,15.699,15.899,385.258,44.198,15.066,14.66,352.656,41.664,0
14.398,18.446,501.961,57.262,18.67,20.238,477.153,41.772,13.164,14.955,273.97,33.716,0
14.483,17.652,312.301,34.161,15.8,16.57,344.68,32.257,40.857,24.507,2235.46,84.246,0
11.743,12.053,228.154,34.783,15.562,19.199,391.51,42.474,40.234,13.57,1802.901,59.116,0
12.277,14.646,218.17,30.759,17.001,21.455,468.569,46.007,20.176,13.5,547.947,42.662,0
12.635,15.17,235.098,32.182,19.192,21.519,524.52,49.94,16.11,19.452,378.389,38.615,0
15.546,19.682,437.812,51.716,9.291,11.017,126.565,22.046,16.598,18.973,455.326,50.695,0
15.092,14.808,369.199,47.654,15.619,17.029,322.554,32.109,15.3,11.281,350.847,40.273,0
18.482,22.546,532.985,56.6,14.421,15.257,341.794,45.542,44.598,31.146,2744.169,93.574,0
13.841,15.373,298.623,44.638,11.33,11.256,185.268,24.585,42.342,16.836,2054.365,71.828,0
12.81,15.645,251.405,32.401,12.966,16.46,271.366,33.245,14.597,17.82,321.122,40.46,0
17.173,15.937,460.014,51.504,14.082,14.834,313.771,38.802,9.335,11.789,158.698,27.462,0
20.664,22.848,545.709,42.054,17.996,21.437,511.777,52.264,15.893,15.309,368.955,41.757,0
12.543,14.484,236.596,41.171,13.843,17.16,297.076,38.632,16.967,12.032,401.504,39.947,0
15.218,15.423,374.669,48.624,9.329,11.135,125.002,23.811,34.928,13.627,1405.697,59.879,0
16.14,18.765,353.077,36.783,13.974,16.004,332.07,40.951,46.386,14.018,2348.153,70.607,0
23.356,28.403,809.281,68.8,9.68,11.067,141.812,26.666,18.364,16.7,418.049,37.928,0
19.156,24.304,646.628,58.083,14.643,16.524,278.085,28.421,14.203,12.79,305.73,31.831,0
12.638,14.303,227.191,36.588,11.178,13.251,211.057,31.594,13.678,15.083,290.79,41.105,0
9.707,11.211,131.632,30.632,18.467,14.8,463.893,39.881,10.833,9.122,179.303,34.22,0
25.586,32.296,1043.191,71.113,13.403,15.889,270.418,33.438,25.045,13.346,805.381,50.522,0
8.776,10.626,131.46,33.028,11.313,12.188,181.981,33.296,19.373,15.271,549.438,55.038,0
14.831,17.788,316.414,34.347,15.604,17.896,341.929,39.114,16.475,18.494,371.953,37.9,0
15.421,18.471,401.287,53.845,12.574,15.861,252.415,35.622,24.724,18.786,916.658,60.409,0
11.139,14.024,206.565,36.45,10.532,11.065,175.663,29.647,48.579,12.09,2506.068,75.27,0
11.289,14.471,222.497,38.388,19.925,13.958,568.151,45.266,28.661,13.116,993.51,56.031,0
23.293,14.049,696.121,40.146,18.349,17.574,480.661,41.708,21.222,19.919,568.421,50.498,0
10.717,12.787,171.716,27.592,15.552,10.665,322.908,33.319,16.757,17.632,417.735,46.338,0
14.566,16.2,323.549,42.63,14.647,15.58,352.8,49.607,50.352,13.089,2706.614,78.363,0
12.907,13.996,241.091,30.499,15.145,12.152,356.163,38.52,55.564,14.841,3307.612,83.993,0
15.759,13.661,336.803,37.614,16.615,17.848,423.387,38.733,31.484,30.928,1326.718,77.239,0
10.465,12.937,176.468,32.004,15.042,18.689,350.089,44.796,16.346,20.382,415.542,48.776,0
19.173,20.772,478.242,40.517,12.603,15.23,231.971,35.831,12.079,15.217,232.159,34.827,0
17.24,21.673,470.017,45.122,10.802,12.65,160.987,28.599,16.755,19.714,420.722,36.925,0
21.894,19.716,621.173,39.982,15.937,16.915,399.493,43.229,29.068,13.535,1028.116,57.386,0
12.819,15.829,251.667,33.101,12.907,15.423,250.161,39.747,36.703,15.572,1589.638,63.742,0
10.207,12.34,154.33,30.147,15.437,17.427,339.642,41.192,14.603,13.226,324.186,36.939,0
10.87,13.127,188.024,31.479,16.148,17.514,384.021,39.945,10.5,11.592,209.609,40.66,1
18.969,24.074,640.429,56.053,16.267,18.072,344.786,37.512,22.571,17.596,575.816,39.289,1
14.536,11.918,310.335,35.586,9.37,10.482,123.173,20.648,17.59,19.725,609.144,67.807,1
17.848,16.727,444.505,42.737,9.66,11.473,155.802,36.335,23.62,19.655,813.28,55.278,1
16.916,20.181,408.749,39.842,10.454,11.222,153.546,28.937,9.386,11.662,164.171,28.694,1
24.613,30.378,931.565,54.114,14.636,16.774,313.512,37.505,22.354,11.954,598.275,41.631,1
10.838,12.866,171.909,24.762,12.288,11.945,212.245,26.636,19.58,20.718,579.444,47.214,1
14.358,18.042,333.25,42.505,17.137,20.378,418.771,38.31,25.779,11.558,798.167,46.757,1
32.558,37.188,1384.492,75.029,17.019,15.625,452.397,47.522,32.135,13.428,1212.983,60.682,1
15.433,18.404,339.411,39.234,25.032,12.301,777.924,58.792,12.596,15.418,238.563,40.182,1
17.524,18.998,434.364,42.188,10.919,9.547,185.283,27.817,17.173,18.325,418.484,38.314,1
13.93,16.884,285.089,28.653,16.845,17.832,452.12,55.274,10.295,12.226,162.125,26.431,1
13.333,15.47,269.255,39.816,16.634,12.662,379.442,41.004,19.529,15.691,597.964,47.555,1
13.35,15.945,266.011,32.9,15.214,15.823,373.986,41.684,17.571,13.752,442.499,49.314,1
24.063,30.638,1125.115,84.2,19.259,12.677,471.135,40.442,23.595,16.089,784.758,47.689,1
17.191,16.926,372.401,35.107,18.91,19.792,492.487,42.913,28.425,12.467,963.429,49.655,1
24.22,24.839,776.85,65.446,10.143,8.349,145.33,24.941,19.293,14.816,549.545,43.222,1
20.726,23.909,573.039,54.854,16.365,18.258,360.49,34.515,18.863,13.929,467.827,38.019,1
17.222,19.794,396.171,39.365,12.544,14.822,223.301,35.287,19.276,16.094,528.303,55.804,1
12.663,17.462,306.407,40.963,16.393,18.569,461.705,54.802,22.808,26.153,731.967,55.747,1
10.277,12.457,166.76,25.894,13.485,11.523,290.223,36.628,22.297,16.511,717.949,60.018,1
15.61,17.879,334.361,38.923,13.578,16.502,303.333,38.5,40.263,15.969,1876.161,65.853,1
10.139,11.386,175.315,33.872,16.457,17.371,412.116,37.812,63.005,17.225,4266.318,98.539,1
11.953,12.738,213.089,33.483,16.291,19.248,375.687,35.99,66.829,12.37,4619.086,92.682,1
11.787,12.392,202.517,26.963,12.613,15.138,230.285,24.895,50.243,16.178,2786.12,80.923,1
17.0,20.63,426.145,41.949,14.352,17.567,333.203,47.69,50.821,13.998,2778.692,78.513,1
11.763,13.933,206.402,28.636,8.426,10.794,121.507,24.187,15.181,15.611,335.05,37.777,1
14.569,16.36,344.586,39.104,11.494,13.864,195.363,30.078,30.542,14.751,1115.62,63.307,1
14.386,17.494,314.549,45.794,7.131,7.502,76.093,22.508,35.599,9.444,1356.453,53.265,1
25.036,32.908,1091.837,74.827,13.587,16.531,273.281,41.162,39.817,27.875,2046.979,79.063,1
9.161,10.877,132.369,23.796,16.627,19.496,380.74,37.879,8.797,11.312,134.092,23.803,1
6.865,9.924,102.673,32.468,9.308,11.458,131.38,28.583,15.469,15.715,384.56,46.994,1
12.024,13.239,221.417,31.89,14.518,17.108,299.229,31.529,13.772,11.11,304.337,46.208,1
12.201,15.296,248.311,32.809,11.08,12.506,190.026,33.376,19.005,22.038,632.598,60.318,1
14.172,18.254,337.516,36.762,18.404,22.93,527.582,46.646,17.529,17.596,433.508,54.456,1
14.199,17.803,352.714,52.24,7.423,8.713,91.541,23.356,20.235,17.632,596.583,50.531,1
12.509,13.465,198.078,24.14,17.481,14.746,433.724,40.32,12.543,11.98,234.447,29.164,1
15.255,19.195,451.479,54.749,15.867,19.834,396.835,43.233,28.681,22.585,1032.33,55.955,1
13.674,16.014,259.048,30.199,11.967,14.57,212.394,30.592,56.234,15.367,3398.437,88.936,1
19.5,22.936,569.907,50.743,15.524,18.297,336.909,40.75,29.63,13.245,1053.395,52.858,1
16.043,18.759,352.538,37.889,10.868,13.38,179.423,27.679,22.739,14.65,720.207,54.667,1
20.803,26.448,699.924,60.228,14.834,16.752,375.198,43.467,34.305,13.128,1349.15,54.856,1
12.517,13.393,263.256,41.496,11.11,13.395,187.06,28.335,14.373,12.381,316.912,46.266,1
11.788,13.257,189.268,27.821,13.816,14.712,274.68,35.332,15.485,17.724,353.497,41.664,1
10.279,14.236,216.314,31.926,16.58,16.333,386.484,38.512,10.099,10.32,171.064,37.462,1
7.43,9.405,89.746,23.005,11.669,12.482,210.431,32.257,35.479,16.14,1487.002,60.93,1
12.207,11.789,198.936,24.312,13.28,14.289,236.37,32.557,19.326,25.68,671.472,68.747,1
41.335,27.183,2210.457,97.433,26.07,29.966,919.163,60.426,31.447,31.34,1536.43,82.163,1
79.347,43.418,8181.072,165.01,51.462,59.55,3934.917,143.487,47.026,42.856,3621.149,133.978,1
171.342,201.666,40725.957,402.409,149.781,142.589,31802.287,329.634,103.484,100.625,14469.815,256.307,1
161.307,228.745,61260.887,785.619,199.293,221.583,54947.273,386.919,145.523,31.975,22199.318,197.74,1
917.398,561.394,1156783.625,2027.16,198.649,245.62,60878.266,489.161,163.653,167.085,34769.844,339.773,1
1730.578,125.354,3010612.5,1947.282,963.502,704.471,1424615.5,2104.843,193.403,146.637,57107.809,606.185,1
1346.079,97.506,1821437.0,1514.637,1406.585,361.856,2109421.0,1864.535,510.972,110.338,273266.688,678.151,1
1047.008,75.843,1101978.5,1178.116,803.13,386.661,794524.812,1623.602,784.333,176.422,646302.625,1178.555,1
814.385,58.989,666703.187,916.363,253.841,161.285,85896.062,490.676,734.168,188.635,574585.187,1027.929,1
633.445,45.884,403358.25,712.766,105.337,144.449,22248.57,403.209,516.774,193.406,304460.844,799.522,1
492.706,35.69,244033.047,554.404,343.14,395.322,168592.719,789.868,178.73,138.419,47462.074,456.286,1
383.236,27.76,147640.562,431.226,246.728,133.031,78572.078,466.474,150.9,175.645,34751.949,375.653,1
445.957,487.287,271193.906,981.677,464.159,110.274,227604.266,627.871,278.732,152.583,100973.008,636.3,1
1008.292,218.977,1064604.125,1386.15,526.727,178.823,309418.594,798.903,349.37,90.962,130333.281,527.556,1
1227.314,224.258,1556591.625,1667.837,527.011,126.329,293699.906,803.257,327.62,63.574,111376.602,424.438,1
1441.033,125.542,2092337.75,1686.157,510.196,92.953,268939.875,666.426,319.169,95.846,111055.367,465.661,1
1408.409,133.163,2001348.375,1598.222,428.144,170.684,212440.5,781.266,358.321,56.11,131542.469,465.205,1
1418.996,122.102,2028458.5,1598.571,412.407,134.17,188081.203,728.324,389.213,63.255,155488.234,499.04,1
1307.08,208.905,1752098.375,1610.464,302.58,153.728,115187.102,707.955,376.189,140.208,161176.25,728.633,1
1180.769,146.938,1415805.625,1486.036,269.662,73.448,78111.969,429.416,381.386,78.133,151560.047,513.166,1
911.367,160.679,856406.937,1134.715,201.798,133.976,47279.191,331.486,299.353,93.011,98263.328,511.669,1
746.469,169.816,586053.375,1094.928,178.746,152.482,45374.137,351.931,258.649,78.244,73021.484,440.787,1
536.322,208.986,331316.719,805.351,113.657,95.878,16035.621,257.245,235.538,35.344,56727.352,322.115,1
366.844,190.254,170771.578,760.371,104.979,132.204,17980.24,351.304,200.759,111.582,52601.691,398.601,1
244.204,104.171,70487.367,438.661,100.287,112.455,15152.527,315.12,155.996,92.509,31712.305,296.629,1
174.615,230.058,54280.914,530.002,156.236,169.616,33577.043,351.866,116.265,87.674,16507.498,212.005,1
147.258,197.482,42234.375,527.957,107.45,125.472,17750.555,308.121,74.191,73.208,7850.818,165.157,1
198.737,235.267,68147.297,611.175,162.073,164.713,35841.664,391.439,67.848,80.941,6905.7,163.697,1
183.686,158.859,52853.504,448.27,129.908,146.784,22004.705,290.979,119.448,138.062,19251.982,290.047,1
286.372,243.507,120990.867,693.026,127.423,144.148,22971.303,331.285,76.259,91.836,8935.813,215.603,1
341.319,177.886,148141.906,677.245,104.486,114.184,17574.387,302.656,126.239,147.865,24718.965,351.787,1
326.922,139.825,126429.117,676.874,144.899,169.459,34645.664,394.763,142.905,135.005,27452.875,321.155,1
381.935,143.727,166531.641,705.675,127.317,120.078,20352.072,264.58,159.965,164.595,37168.555,356.339,1
281.409,91.086,87487.648,441.052,86.162,85.328,9005.476,135.049,143.471,130.446,27211.346,322.215,1
322.885,158.045,125974.109,650.49,135.125,153.732,30797.123,409.243,103.553,106.638,15990.685,267.513,1
284.329,155.402,103889.352,647.623,103.341,120.516,20200.137,337.441,132.619,152.537,24112.064,299.006,1
224.949,106.191,61878.578,464.414,123.68,150.527,22842.109,324.098,103.819,101.006,15555.179,250.228,1
258.334,245.099,101138.219,671.799,127.177,133.663,24642.477,412.927,86.129,69.154,10101.895,191.115,1
227.347,77.568,57703.375,393.712,108.52,147.208,21986.723,342.48,50.46,47.154,3788.418,113.555,1
135.14,104.131,27020.875,290.008,112.635,123.634,16541.531,243.768,53.968,62.854,4295.839,133.322,1
150.494,107.672,34203.176,415.416,98.415,107.331,17596.447,358.328,94.044,72.167,11351.331,191.095,1
162.735,167.419,41284.57,428.298,95.215,112.037,12619.898,228.964,80.157,79.83,11260.146,242.154,1
163.754,130.987,43728.453,544.823,83.075,67.637,9291.978,163.591,80.027,101.601,10590.125,225.441,1
140.386,152.184,28943.09,328.606,60.736,73.604,5499.623,150.569,75.275,89.198,9548.152,217.656,1
139.174,100.298,29428.898,356.16,142.323,150.507,24078.564,252.935,91.467,108.913,11867.541,197.716,2
87.437,97.509,13060.662,272.157,73.948,83.036,7722.365,188.036,57.638,78.679,6488.702,207.799,2
186.621,194.875,43974.504,344.326,71.625,87.583,7700.995,180.001,66.763,61.9,5576.391,127.346,2
92.539,82.479,12969.952,234.873,62.416,75.494,5870.561,185.58,78.175,91.357,9840.832,259.932,2
66.265,79.281,6321.541,148.734,48.485,50.677,3410.03,119.887,34.578,38.486,1824.147,116.848,2
641.493,595.437,718683.687,1640.442,151.112,144.601,42059.496,423.97,51.375,53.441,5180.879,155.969,2
1425.794,103.279,2043554.875,1604.333,492.777,44.588,244817.453,587.194,246.023,59.949,64121.414,314.206,2
1109.013,80.332,1236364.0,1247.885,465.37,51.1,219180.656,564.827,315.904,53.985,102709.812,409.646,2
862.615,62.485,748008.187,970.632,362.732,48.209,133898.797,454.929,257.327,117.194,79951.602,484.713,2
670.96,48.602,452549.625,754.978,195.061,66.296,42443.828,323.152,187.884,56.286,38468.676,288.234,2
521.887,37.802,273795.406,587.238,144.136,125.766,29615.984,269.826,120.324,37.019,15848.272,225.865,2
309.227,275.6,116528.68,456.767,265.206,46.659,72511.445,340.291,46.033,39.705,3301.1,134.404,2
899.26,316.762,909007.5,1250.399,394.737,20.582,156241.094,433.616,35.646,31.265,1764.754,83.637,2
1260.986,42.583,1591900.125,1352.502,398.912,21.493,159592.703,444.674,112.658,35.411,13945.71,179.439,2
1272.62,49.333,1621996.0,1331.182,354.748,30.102,126752.359,402.782,134.577,23.308,18654.176,164.39,2
1173.635,15.614,1377663.5,1203.212,304.96,12.137,93147.742,333.501,159.351,26.385,26088.887,203.623,2
997.323,58.948,998128.312,1154.564,243.483,31.149,60254.105,319.963,231.146,81.06,59999.164,331.792,2
831.442,60.375,694940.312,904.262,187.035,27.389,35732.184,228.632,334.824,21.015,112548.93,379.959,2
654.029,62.467,431655.844,770.823,104.658,23.642,11512.175,143.81,202.342,57.124,44205.551,317.832,2
512.835,37.27,264388.531,563.564,50.406,29.616,3381.529,87.946,123.972,32.975,16456.43,179.424,2
349.68,59.897,125863.727,482.875,31.121,36.911,1362.406,65.524,102.834,17.098,10867.105,127.034,2
237.536,24.278,57012.859,295.465,30.586,17.126,1051.988,49.958,111.518,15.259,12669.157,131.647,2
123.038,40.108,16747.111,190.54,64.555,18.667,4515.802,102.498,60.218,16.893,3911.527,89.434,2
36.528,30.417,2142.163,96.19,73.296,15.694,5618.628,101.983,31.146,20.605,1368.938,65.541,2
40.297,41.299,3203.208,108.454,68.084,24.498,5235.552,121.355,32.693,19.109,1397.932,62.253,2
94.538,18.413,9276.488,130.02,85.09,17.581,7549.377,126.257,19.992,25.656,658.311,62.328,2
127.921,20.321,16776.742,168.845,96.587,15.333,9564.183,121.173,24.104,27.586,969.404,79.246,2
180.979,31.492,33745.129,229.57,94.203,18.634,9221.445,128.126,23.277,17.961,745.624,60.355,2
200.57,35.69,41502.227,247.754,84.527,15.669,7390.338,106.94,44.098,22.8,2464.475,85.3,2
215.292,28.655,47171.746,292.751,68.275,16.009,4917.733,106.492,26.3,18.232,964.265,66.461,2
241.908,19.352,58894.199,274.263,72.419,15.447,5483.125,107.025,14.47,16.369,321.427,41.554,2
225.599,11.694,51031.766,245.312,60.187,19.819,4015.328,87.516,14.405,15.639,296.609,33.278,2
226.19,17.169,51456.523,250.7,54.689,29.294,3775.626,104.145,20.252,20.714,638.441,55.717,2
201.258,24.436,41101.898,233.967,41.046,14.943,1908.082,61.2,16.349,19.102,389.816,38.581,2
182.355,29.171,34104.379,216.71,34.944,19.97,1532.169,58.323,29.999,29.615,1608.416,86.988,2
158.274,20.76,25481.762,197.377,32.658,14.724,1263.412,55.177,59.742,19.609,3953.59,85.688,2
152.219,31.955,24191.85,278.298,23.072,21.597,720.971,54.627,47.138,48.74,2668.567,88.751,2
497.038,52.777,249832.266,562.511,16.885,17.918,526.458,55.29,148.869,20.936,22600.217,199.662,2
465.951,46.101,219235.312,525.235,31.919,36.181,1364.939,68.48,110.558,17.64,12534.21,157.09,2
317.848,57.94,104384.227,400.928,7.371,8.631,79.77,16.237,65.236,22.641,4768.398,116.449,2
151.487,28.307,23749.721,225.578,14.436,16.159,306.55,45.757,49.565,48.473,3738.322,124.036,2
41.506,41.346,2482.468,111.476,18.674,20.664,503.277,47.814,149.621,25.468,23034.99,205.552,2
55.446,31.713,4013.692,108.204,16.893,16.86,423.422,38.791,153.332,23.533,24064.602,194.41,2
96.394,19.248,9662.29,131.7,14.734,16.763,353.494,45.975,83.754,21.555,7479.305,127.04,2
130.0,19.601,17284.266,159.45,20.66,14.103,616.629,55.546,78.845,13.488,6398.45,103.466,2
157.223,24.8,25334.07,219.795,28.668,17.77,1055.243,55.772,57.495,37.148,3977.296,96.642,2
155.805,15.771,24523.832,181.139,30.73,26.084,1549.713,77.85,51.142,47.282,3578.62,111.081,2
170.421,64.564,33211.875,350.313,290.705,174.523,114967.281,616.96,64.039,62.543,5829.826,146.659,2
756.605,117.067,586155.062,875.443,729.542,73.801,537678.187,856.535,149.652,75.367,28075.852,300.804,2
866.466,96.81,760134.75,1044.234,702.132,120.218,507441.719,934.024,340.494,141.114,135849.141,598.65,2
728.421,109.324,542548.5,900.481,509.125,63.674,263263.063,628.11,395.556,236.646,212465.641,863.265,2
366.327,104.04,145019.797,521.235,283.276,125.636,95157.711,432.49,295.514,183.259,116035.93,662.411,2
143.708,62.909,24609.676,270.038,109.301,101.426,18044.605,291.156,229.521,265.071,76783.477,591.479,2
90.477,107.861,11994.605,256.094,103.817,63.848,14154.348,200.056,117.776,121.75,18759.846,297.78,2
407.604,79.093,172396.453,569.119,211.516,75.867,50494.594,365.893,171.403,178.444,42775.426,353.016,2
383.753,63.323,151276.078,463.258,288.074,51.021,85589.797,384.02,181.246,148.417,53652.047,440.087,2
379.211,65.352,148072.109,528.002,337.046,63.821,117672.93,489.17,239.486,285.091,87149.617,737.16,2
351.047,59.219,126741.039,450.865,320.96,92.093,111496.398,526.418,294.407,247.212,109227.633,551.434,2
396.221,55.966,160123.578,494.86,341.608,51.344,119332.398,502.387,190.688,164.78,42138.781,337.095,2
396.52,45.079,159260.187,485.173,311.847,67.772,101841.898,459.169,157.861,97.518,31422.895,290.216,2
367.553,48.477,137445.078,443.052,293.748,43.338,88166.0,396.357,161.797,69.394,30993.937,330.304,2
269.824,37.442,74206.727,326.633,240.739,45.127,59991.594,343.309,160.687,82.894,31166.08,276.892,2
275.85,69.887,80977.477,378.07,221.96,66.806,53729.41,340.12,135.927,131.99,25563.592,380.968,2
204.927,39.191,43531.234,281.39,190.238,54.852,39199.352,357.504,133.728,125.158,27084.033,415.768,2
140.646,46.037,21900.75,226.982,138.618,44.144,21163.488,230.764,134.066,82.688,21283.561,235.406,2
82.3,24.911,7393.792,133.509,137.687,51.519,21611.779,223.06,121.728,144.813,21263.285,353.225,2
50.504,49.256,3767.554,119.783,86.811,40.086,9143.021,173.556,140.156,162.391,26908.953,249.209,2
54.964,67.092,5139.323,213.912,65.392,33.822,5273.433,136.677,84.958,95.488,10918.173,231.836,2
69.018,49.992,5929.26,116.867,65.489,64.001,6111.542,174.459,79.099,94.104,9585.493,221.501,2
79.576,42.382,8128.564,172.952,47.49,46.22,3010.828,113.812,85.161,116.292,13537.8,265.976,2
90.761,30.23,9151.45,158.022,39.798,47.25,2460.146,104.047,66.065,73.359,5434.694,130.028,2
100.391,23.924,10650.645,150.056,31.723,40.183,1832.79,90.611,67.137,75.377,5857.898,140.874,2
87.661,38.982,9204.026,179.573,46.703,56.739,3273.723,133.152,100.562,110.616,14851.79,232.043,2
95.989,35.418,10468.26,154.017,56.909,59.842,3988.802,112.803,149.577,155.591,27781.443,277.576,2
99.223,30.1,10751.213,159.418,41.24,32.641,2166.669,86.176,60.268,75.446,5692.21,186.583,2
98.188,27.081,10374.19,160.007,70.613,54.905,6639.326,141.385,89.095,97.818,10859.76,219.652,2
69.841,25.927,5549.993,105.638,52.163,37.151,3860.856,118.038,103.355,84.92,15734.388,274.632,2
76.906,36.146,7221.039,140.244,46.439,39.216,3384.247,132.777,95.667,64.181,12622.388,204.659,2
72.269,31.246,6199.151,142.174,68.348,42.352,6100.661,142.796,66.66,83.196,8030.467,256.766,2
47.756,27.628,3043.924,121.942,63.043,50.961,5404.239,141.552,79.198,93.872,10286.76,264.858,2
60.808,38.427,5099.816,118.639,72.787,64.756,7250.216,161.732,150.271,168.791,28564.748,324.803,2
37.814,22.432,1799.966,72.378,47.505,39.049,3036.371,92.591,93.246,92.589,14692.521,278.28,2
39.71,45.321,3170.784,152.383,71.435,54.255,5984.92,146.19,123.403,140.122,21546.232,318.034,2
31.39,33.695,1613.93,86.542,44.762,40.152,2779.613,96.867,103.325,125.253,15691.62,216.137,2
38.445,40.85,2755.334,131.034,48.646,41.809,3420.539,105.953,161.528,194.847,37993.773,369.639,2
24.823,25.695,1026.021,76.373,43.931,34.895,2562.569,94.929,108.793,124.185,16195.227,233.002,2
19.552,22.854,551.646,49.789,39.564,36.175,2110.61,88.695,82.187,94.907,9366.813,189.618,2
30.838,32.488,1306.412,64.017,47.424,48.572,3097.056,110.244,130.865,152.378,24460.502,309.489,2
26.6,35.03,1244.066,87.831,51.537,58.829,3747.778,112.537,92.362,116.253,13538.32,281.026,2
29.222,34.544,1356.922,67.747,46.113,37.094,2959.45,105.906,73.961,84.08,8673.076,189.262,2
31.243,34.121,1317.422,74.403,43.199,32.071,2600.772,96.006,70.749,86.987,8586.454,211.759,2
21.095,22.693,732.916,58.395,27.451,31.855,1129.546,73.443,67.418,76.8,6851.098,155.372,3
33.356,37.896,1499.696,78.076,31.771,34.391,1587.06,78.859,60.591,68.81,4923.604,134.058,3
39.503,44.025,2121.988,90.438,33.799,33.74,1540.975,86.352,72.91,105.402,11389.371,328.436,3
31.043,26.023,1380.184,64.17,40.18,48.747,2379.354,108.941,40.412,47.194,2477.893,97.204,3
24.675,30.053,942.588,78.087,29.547,35.618,1624.151,86.609,44.786,45.051,2429.812,86.345,3
21.786,13.005,643.754,51.306,12.91,12.917,221.207,29.011,29.145,29.522,1200.715,63.717,3
35.34,10.711,1363.612,60.723,16.534,17.038,401.49,41.983,51.638,24.712,3277.203,97.165,3
18.898,22.629,515.83,44.649,41.631,12.714,1894.805,62.268,54.061,52.794,4724.886,126.748,3
16.173,12.727,385.425,39.291,91.491,82.061,10818.228,156.509,238.032,98.487,66143.203,324.619,3
52.927,46.822,4637.109,130.646,155.899,27.91,25083.346,199.038,244.324,31.807,60705.969,311.473,3
129.453,35.098,17989.943,188.956,57.729,36.372,4655.509,111.955,164.141,23.319,27485.963,206.36,3
171.017,46.56,31414.57,244.002,21.948,25.757,670.591,50.121,75.685,26.781,6445.469,127.033,3
186.698,43.131,36716.344,231.309,28.518,21.603,1118.654,66.851,36.708,36.264,1765.811,74.085,3
174.561,19.055,30834.734,211.537,24.28,21.06,908.503,66.122,31.212,32.795,1286.967,69.296,3
113.311,41.749,14582.357,170.486,21.743,28.059,813.68,67.081,74.954,29.737,6502.321,124.513,3
81.374,56.657,8076.112,137.542,37.399,47.485,2312.529,103.857,106.984,34.757,12653.645,171.39,3
65.142,59.612,5533.568,123.761,66.302,55.14,7020.514,171.373,113.061,20.42,13199.849,162.746,3
108.424,113.988,22754.508,352.782,89.207,79.519,10217.258,194.438,113.772,14.996,13168.836,151.11,3
495.375,191.984,282253.906,759.875,380.945,102.52,155629.656,560.514,121.623,22.883,15315.795,184.761,3
1604.487,380.077,2718836.5,2050.986,247.288,236.946,82268.383,550.678,142.083,16.818,20470.525,176.953,3
1693.405,122.662,2882666.5,1905.454,265.205,52.904,73132.578,354.925,131.427,19.545,17655.133,170.857,3
1317.166,95.413,1744030.25,1482.103,254.307,45.855,66774.898,350.522,124.526,21.846,15984.079,153.793,3
1024.519,74.212,1055147.5,1152.811,119.368,129.615,23403.314,258.132,103.837,14.853,11002.751,138.13,3
796.893,57.723,638370.062,896.68,126.247,26.176,16623.5,180.986,104.091,18.466,11176.003,141.62,3
659.837,647.403,508012.719,1040.62,136.256,58.177,21950.248,236.282,48.885,24.347,2982.476,103.768,3
1249.541,99.448,1571242.75,1447.674,92.942,35.111,9871.074,186.96,43.33,14.897,2099.404,66.034,3
1478.737,21.046,2187105.5,1511.536,47.82,30.599,3184.833,124.125,17.107,20.852,570.7,55.966,3
1440.536,57.18,2078414.25,1539.54,31.913,36.954,1439.542,65.561,19.68,15.694,588.021,40.27,3
1236.929,76.823,1535895.875,1355.933,20.785,17.278,593.528,45.516,15.399,20.183,439.28,48.29,3
935.974,76.839,881951.812,1091.109,36.044,16.197,1561.493,68.074,24.606,22.066,906.564,60.145,3
673.379,88.259,461229.438,839.296,22.769,12.357,661.419,59.403,30.209,12.39,1066.133,55.748,3
460.528,56.59,215288.812,566.823,43.569,19.237,2268.308,78.628,123.815,50.284,17858.641,182.022,3
312.35,30.348,98483.398,365.971,41.378,28.318,2417.186,99.178,186.535,15.436,35033.699,206.581,3
239.558,31.513,58381.035,306.462,37.498,10.205,1510.231,56.554,140.069,25.152,20251.883,184.888,3
133.736,36.041,19184.363,191.477,37.751,32.399,2165.012,96.134,94.534,16.471,9207.994,120.118,3
44.396,34.525,2557.676,95.958,46.155,41.262,2913.989,102.635,52.253,31.799,3676.459,98.81,3
61.773,63.516,6690.333,198.585,38.077,21.595,1911.771,74.035,36.864,25.996,1990.618,98.078,3
80.319,51.318,8861.521,154.149,20.248,24.863,692.452,56.846,20.16,23.525,553.731,38.917,3
143.976,34.334,21907.797,201.32,32.201,26.026,1446.109,88.425,13.254,15.816,283.725,43.726,3
163.787,22.946,27352.74,235.114,29.767,16.104,1120.416,58.505,18.971,21.903,515.479,50.154,3
156.263,29.293,25276.324,204.816,21.076,16.515,592.202,47.08,25.831,18.0,887.925,64.876,3
181.492,26.578,33645.676,218.253,24.243,20.15,909.38,66.907,23.291,13.176,716.107,58.422,3
179.344,32.583,33226.008,246.406,20.173,24.205,710.192,71.767,14.56,13.966,361.227,41.604,3
174.873,14.514,30791.18,206.949,14.337,14.78,291.62,37.118,13.683,17.237,305.036,37.063,3
178.168,42.704,33567.441,281.705,16.084,13.816,376.933,38.917,35.899,26.096,1859.532,79.308,3
158.649,39.307,26714.664,240.156,21.487,25.8,734.074,54.596,50.443,19.166,2911.847,102.86,3
160.057,38.934,27134.068,262.23,44.773,48.168,3256.676,135.86,32.869,21.02,1434.312,67.993,3
152.69,50.949,25909.947,253.924,28.356,28.034,1113.808,55.337,37.827,36.531,2323.309,93.846,3
353.196,180.872,157461.766,725.429,54.033,65.272,4953.629,160.512,74.569,33.971,6714.612,149.044,3
362.457,303.687,161315.891,772.238,334.637,380.495,146716.906,710.985,85.137,106.931,15530.838,331.868,3
203.597,228.438,75049.367,660.143,830.388,209.295,733348.562,1317.134,149.704,168.059,36166.809,503.978,3
183.842,203.697,50194.906,516.97,1564.7,175.959,2479246.25,1788.0,100.104,111.448,18399.324,302.576,3
255.68,307.133,100304.43,703.466,1380.455,99.993,1915653.75,1553.317,110.478,127.016,16986.533,241.353,3
204.413,235.258,57636.254,502.18,1073.747,77.777,1158981.25,1208.202,65.494,80.156,6425.814,170.191,3
153.913,183.717,36910.148,475.668,749.13,215.865,607794.0,939.765,128.114,106.775,22150.32,296.903,3
244.883,234.55,85609.242,519.451,176.786,219.821,48792.656,501.644,105.277,65.437,14642.852,220.794,3
559.771,172.616,343140.25,820.987,429.085,167.965,212325.937,665.053,149.9,169.54,34245.434,363.919,3
733.672,130.781,555378.687,974.937,774.128,172.67,629088.937,1004.759,108.851,91.879,17047.518,260.545,3
609.666,140.312,391379.563,825.169,1010.227,100.015,1030562.0,1177.848,96.596,82.996,13997.238,234.064,3
450.044,142.143,222744.562,675.694,1069.632,72.064,1149306.75,1230.607,81.294,83.404,10657.384,216.857,3
104.21,124.04,18197.457,315.533,1064.756,77.9,1139774.25,1209.916,110.428,62.023,16041.124,228.062,3
189.496,102.816,46479.762,462.588,1005.305,70.824,1015654.062,1117.657,85.22,57.788,9439.102,181.942,3
269.3,105.561,83665.586,509.042,1279.853,175.377,1668780.125,1489.409,43.944,58.594,3702.555,188.042,3
310.946,121.78,111517.937,625.455,1409.643,82.68,1993930.25,1552.801,110.742,124.106,15803.146,216.315,3
237.746,63.917,60608.648,366.258,1113.918,123.276,1256009.875,1296.344,68.499,74.59,6703.851,179.337,3
221.977,85.493,56582.711,368.784,722.138,128.795,538070.937,957.475,50.921,45.741,3856.674,115.336,3
145.46,83.323,28101.482,326.449,365.982,138.799,153208.078,593.791,83.114,90.629,8844.581,155.281,3
137.125,78.415,24952.055,309.071,102.814,94.747,15273.602,220.928,51.115,49.203,4243.53,122.759,3
110.071,95.224,17843.672,282.355,118.919,73.868,17656.271,234.554,81.472,68.923,10415.778,229.402,3
94.489,72.266,13591.685,252.059,261.065,86.585,75652.109,438.576,54.989,44.314,4519.549,128.71,3
87.442,105.935,11377.62,202.511,297.218,57.17,91607.008,384.796,46.686,48.735,4050.208,153.862,3
74.261,88.053,8071.379,198.925,355.56,30.893,127377.352,428.484,94.474,71.815,13349.341,248.975,3
51.761,62.666,4297.85,155.846,380.116,59.929,148079.937,524.75,63.602,77.293,6628.292,174.585,3
57.449,69.528,4863.461,169.546,373.906,44.384,141775.969,453.506,47.116,54.344,3140.686,112.327,3
58.853,75.752,6002.395,192.773,347.964,66.525,125504.273,489.84,38.269,45.563,2258.609,101.783,3
70.287,91.526,8531.513,228.048,275.655,48.923,78379.352,397.011,53.768,70.166,4923.408,161.64,3
82.442,97.067,10472.956,203.274,315.815,55.884,102861.937,422.863,63.267,59.55,5451.813,139.618,3
77.977,97.465,9814.933,221.469,299.298,68.692,94297.867,462.786,38.266,36.768,2268.026,121.859,3
45.823,65.109,4743.934,195.624,315.78,54.125,102646.687,481.918,25.333,32.342,1082.35,68.367,3
54.333,34.912,3797.128,110.796,324.696,36.37,106750.547,400.69,50.045,63.178,4494.96,180.251,3
61.323,62.346,6349.314,200.446,300.795,63.039,94451.641,402.286,64.471,55.623,7198.348,220.301,3
38.423,42.737,2386.791,107.635,272.043,34.821,75219.781,343.114,74.676,61.769,9209.964,192.63,3
86.232,104.747,11896.796,234.921,232.405,36.188,55321.641,301.531,63.719,53.719,5767.54,155.351,3
61.389,71.944,5441.889,130.618,205.537,61.843,46069.977,355.403,53.862,77.633,6383.3,238.189,3
57.141,76.875,6109.435,215.876,162.313,49.631,28808.855,246.259,35.52,46.333,2256.966,115.838,3
44.724,49.733,2689.524,103.67,95.224,21.698,9538.335,136.052,47.062,49.682,3737.584,125.523,3
75.145,78.054,7071.039,157.853,76.455,71.32,10931.943,272.362,49.824,60.364,4987.35,155.703,3
44.882,46.563,3151.99,144.08,68.791,36.291,6034.619,136.081,39.202,43.555,2170.364,92.217,3
64.716,71.967,5996.19,191.104,40.896,28.956,2458.699,92.716,39.605,50.458,2745.633,112.524,3
74.605,88.748,8522.039,236.58,28.665,34.616,1317.588,72.187,62.096,64.648,5002.347,123.496,3
79.398,85.944,8619.404,164.605,36.895,43.591,1930.814,88.004,73.04,57.748,6529.935,145.095,3
63.412,72.945,5373.594,127.829,57.989,58.688,4764.343,118.737,87.155,41.708,9275.287,157.766,0
67.339,80.998,6989.609,173.267,60.796,34.366,4877.106,142.105,85.745,66.253,10322.596,164.243,0
63.309,75.779,6963.056,185.173,94.515,63.014,11835.666,176.719,80.227,90.587,8856.742,204.204,0
70.242,83.934,8673.14,237.499,69.894,40.367,6514.676,145.237,100.681,104.073,17945.318,313.526,0
73.472,82.711,8137.645,186.169,63.22,34.896,5190.836,128.221,62.63,68.194,5123.972,125.621,0
25.936,32.043,1412.555,93.564,48.23,22.761,2844.25,83.561,27.447,33.629,1133.273,61.037,0
30.598,18.151,1208.182,72.472,50.345,60.021,4279.814,156.884,21.731,13.64,617.596,47.401,0
81.22,28.808,7426.646,124.359,359.506,102.528,139756.844,506.111,53.356,31.828,3859.86,118.343,0
275.553,82.602,82752.312,363.986,482.701,40.415,234633.781,550.573,67.969,15.157,4849.496,100.85,0
295.393,37.543,88666.609,362.713,345.094,28.679,119912.492,403.133,80.284,24.631,7052.144,122.316,0
115.689,43.482,15274.558,193.935,213.754,66.314,50088.27,309.948,71.536,17.194,5413.035,113.86,0
80.774,42.171,8302.799,178.615,73.685,35.664,6444.071,119.869,30.21,24.733,1366.968,86.126,0
144.088,66.552,25190.43,253.881,54.539,30.915,3930.236,117.065,21.105,16.997,615.346,54.842,0
198.935,21.941,40056.586,245.042,61.568,16.423,4060.286,93.899,15.362,20.771,435.578,46.601,0
153.065,49.129,25842.721,238.597,29.458,35.835,1389.021,77.812,11.756,13.834,210.653,29.72,0
220.549,20.701,49070.566,255.748,70.224,30.383,5732.808,119.696,21.717,18.862,636.328,48.851,0
161.927,44.048,28160.6,236.625,118.777,18.913,14465.608,160.176,12.672,15.876,263.057,38.286,0
67.59,50.834,6896.65,147.169,158.618,37.004,26529.002,211.662,15.761,9.414,316.735,34.23,0
31.632,28.377,1315.957,60.13,199.766,13.361,40085.148,229.227,28.616,13.829,970.84,48.232,0
108.526,19.186,12146.001,139.537,230.209,12.44,53150.836,255.639,17.52,18.047,464.506,41.405,0
147.136,33.238,22753.658,188.877,229.395,26.207,53308.789,295.633,18.396,16.91,484.933,35.978,0
161.356,36.641,27378.34,216.801,216.101,25.058,47327.602,265.517,18.222,17.269,522.418,54.329,0
197.295,19.103,39290.137,229.855,207.669,15.196,43357.496,234.138,14.856,15.069,372.279,42.754,0
169.955,27.25,29627.133,242.143,179.451,18.704,32552.404,221.826,68.694,49.506,7169.643,161.267,0
195.047,23.419,38591.941,235.735,169.231,16.863,28923.4,210.472,175.806,19.215,31276.914,213.743,0
176.242,20.256,31471.467,209.269,148.816,18.373,22483.689,185.02,105.723,31.031,12140.231,156.036,0
159.456,27.558,26185.52,208.397,121.148,24.819,15292.871,162.194,30.339,25.506,1295.175,70.535,0
141.404,34.533,21187.664,194.933,87.604,21.228,8125.072,123.657,67.188,41.773,6259.131,151.961,0
129.554,21.149,17231.658,171.809,71.473,24.128,5690.612,104.525,107.273,18.237,11840.102,141.257,0
103.845,22.204,11276.865,141.328,57.987,21.994,3846.193,95.441,92.435,16.649,8821.485,122.104,0
79.414,9.873,6404.024,95.885,40.418,17.456,1938.3,69.364,58.986,22.436,3982.799,92.33,0
56.431,20.449,3602.589,93.943,24.517,18.548,853.476,56.397,33.972,12.923,1321.125,51.42,0
53.255,33.255,3340.315,94.505,19.511,19.606,545.471,49.952,54.068,17.708,3236.924,97.723,0
27.435,25.137,917.187,52.891,15.028,15.821,315.213,36.818,76.081,15.91,6041.468,107.909,0
28.335,23.884,1013.64,51.75,22.658,27.327,746.838,49.075,34.471,20.828,1622.076,70.767,0
18.049,21.711,473.245,45.245,22.974,21.736,780.1,57.654,23.054,15.262,764.411,64.692,0
15.538,19.151,386.241,45.506,18.758,19.392,630.524,55.824,20.183,14.024,578.915,50.198,0
19.372,19.601,585.402,58.351,18.222,17.261,524.276,43.132,12.274,12.844,240.086,31.898,0
18.425,17.296,487.314,52.969,19.731,21.623,678.296,64.267,10.828,12.833,176.933,29.604,0
25.204,20.376,983.579,61.344,26.482,14.897,923.21,51.782,22.211,17.151,702.866,48.896,0
34.218,40.728,1989.323,100.868,23.623,28.219,957.029,71.905,48.069,22.131,2800.417,95.328,0
20.086,17.186,604.378,54.942,16.067,15.023,379.379,50.712,40.994,17.889,2000.528,64.347,0
33.782,33.828,2146.12,119.381,16.87,17.424,430.612,41.824,56.956,13.216,3418.647,80.236,0
27.476,23.154,1242.151,82.245,14.465,17.438,304.305,33.555,105.816,21.832,11673.768,140.807,0
44.73,13.255,2176.488,66.816,17.783,20.478,461.087,39.986,83.929,19.658,7430.572,119.048,0
21.54,15.865,696.23,53.908,13.667,14.898,270.957,31.661,52.945,16.495,3075.239,88.377,0
23.76,19.576,780.529,58.521,13.541,15.615,265.134,34.365,39.636,21.821,2014.621,66.684,0
28.872,14.774,1051.87,58.924,19.899,25.024,710.239,75.345,38.673,12.485,1651.505,60.967,0
19.214,7.304,416.145,32.946,18.728,17.851,451.981,39.659,32.205,18.324,1352.413,67.648,0
23.149,17.699,733.587,47.081,20.194,18.396,591.989,50.881,19.876,10.74,506.68,35.657,0
26.881,23.903,1240.014,90.724,21.059,22.696,789.445,65.172,25.488,14.218,844.718,58.138,0
26.468,27.303,1179.737,76.158,46.232,15.409,2374.808,91.05,39.151,13.58,1717.242,73.322,0
12.976,12.057,228.468,28.669,18.979,19.746,614.614,62.103,18.711,14.615,498.801,42.822,0
13.331,15.78,250.44,28.86,17.709,15.369,483.095,54.241,11.79,15.359,246.432,44.865,0
15.077,17.429,316.898,38.439,40.173,20.076,1984.481,72.369,23.888,18.14,848.119,64.606,0
14.935,17.108,332.274,36.325,56.63,13.493,3389.061,85.921,51.163,11.705,2754.646,77.466,0
24.779,26.392,831.681,53.116,62.592,12.74,4080.093,83.808,33.316,20.374,1511.848,72.135,0
15.014,16.913,396.018,49.607,62.479,13.627,4089.376,84.832,27.138,16.325,1002.951,74.137,0
13.084,14.215,254.257,36.573,55.004,7.55,3082.447,73.011,13.647,14.842,286.491,37.888,0
16.437,18.439,434.777,55.596,26.024,18.711,929.935,57.514,11.193,14.921,226.564,31.896,0
10.815,12.991,168.786,28.794,21.718,21.944,550.578,37.168,12.663,17.146,294.336,45.99,0
9.372,9.694,137.876,26.282,17.759,15.971,483.926,48.308,18.628,14.38,516.961,47.323,0
17.676,21.584,472.793,47.439,17.592,23.557,608.727,65.253,24.701,15.651,801.269,51.172,0
13.357,16.18,318.629,41.38,24.749,25.521,839.192,57.104,14.23,15.712,283.889,36.494,0
17.562,17.438,422.185,40.132,20.536,15.367,641.255,60.802,11.884,15.911,279.765,41.402,0
14.44,17.136,295.084,33.222,14.462,16.058,326.939,37.971,12.331,14.302,217.338,29.409,0
23.451,32.805,1149.438,82.427,12.174,14.394,215.599,27.336,16.78,13.112,406.319,42.427,0
13.567,15.833,254.773,31.635,15.03,15.151,352.063,40.484,38.745,13.176,1674.792,56.726,0
13.414,15.652,246.888,31.15,8.514,10.104,102.271,19.372,49.289,13.375,2608.236,83.365,0
27.586,33.439,1210.952,71.979,15.522,17.744,314.888,33.728,46.41,12.647,2313.823,66.86,0
12.703,12.306,240.155,33.496,25.841,18.48,894.54,58.075,45.942,16.957,2398.152,76.647,0
17.581,20.075,404.077,31.519,29.908,15.664,1128.075,66.262,33.334,20.551,1489.364,67.378,0
12.482,16.228,272.697,43.137,37.88,18.455,1717.881,64.247,16.821,16.8,433.749,47.536,0
18.102,22.373,500.69,42.083,32.209,15.17,1267.533,72.604,11.254,13.131,202.495,32.917,0
16.396,15.524,384.985,46.305,26.048,12.976,836.936,47.016,18.861,19.391,636.585,61.879,0
12.728,14.478,236.102,33.411,21.77,17.456,684.716,47.187,26.285,14.533,831.597,45.804,0
10.438,13.503,185.12,32.096,23.697,12.795,725.259,42.581,61.919,21.632,4301.874,100.851,0
25.899,34.895,1231.801,91.644,15.911,19.729,431.497,51.912,52.501,18.16,3086.136,84.694,0
14.044,16.447,297.593,32.432,21.538,19.554,658.729,48.883,22.373,13.747,673.435,48.138,0
12.781,13.815,270.593,40.177,14.055,14.696,296.086,32.939,24.947,19.319,788.954,44.483,0
11.785,13.249,201.505,29.876,13.973,16.459,318.342,38.189,8.921,10.039,129.637,25.879,0
10.467,10.563,158.904,25.631,12.115,13.026,204.157,25.496,19.289,9.538,432.988,36.328,0
12.942,14.29,261.223,38.516,14.126,14.356,254.901,25.811,39.902,9.055,1674.163,59.966,0
14.222,17.309,308.021,39.532,12.382,15.46,240.579,35.535,38.621,12.669,1652.087,67.228,0
21.734,19.485,623.236,41.388,12.974,14.643,223.69,32.984,27.555,28.775,952.08,56.328,0
18.338,22.649,513.945,56.756,16.671,18.285,515.725,58.826,18.039,13.839,434.27,39.273,0
25.901,29.989,1021.486,76.22,18.308,22.022,485.458,51.856,28.422,15.839,1024.983,62.701,0
19.267,21.809,505.182,42.852,11.102,12.671,176.832,23.197,45.241,16.559,2320.923,78.569,0
16.558,18.982,360.632,39.454,16.456,16.84,352.011,39.074,62.99,16.464,4238.85,99.163,0
23.494,26.59,708.76,44.386,10.894,12.469,162.496,25.618,33.353,17.159,1378.227,69.481,0
16.221,18.754,413.572,50.345,14.933,21.293,494.349,61.536,63.307,21.262,4459.896,107.092,0
17.09,20.115,497.794,52.407,11.038,13.413,183.569,31.533,96.865,16.428,9652.754,134.93,1
44.638,25.441,2639.769,97.365,13.058,15.336,243.092,32.332,70.755,21.281,5459.109,106.235,1
53.322,18.548,3187.267,86.001,16.337,20.648,426.608,56.596,47.334,20.138,2646.019,74.615,1
38.485,18.167,1811.145,64.892,7.727,10.899,125.455,29.994,69.463,45.722,6786.783,143.642,1
22.351,21.968,669.995,45.902,10.86,13.409,183.137,31.074,140.107,10.536,19741.074,157.76,1
13.785,18.116,345.03,44.664,11.859,14.398,225.491,35.095,132.481,10.095,17653.211,152.059,1
23.472,19.151,809.347,57.081,11.981,13.867,238.933,34.515,92.359,23.666,9090.224,136.204,1
20.311,18.681,716.446,59.073,13.361,14.884,289.802,41.199,53.935,19.412,3285.839,92.897,1
38.125,22.814,1974.026,87.525,16.952,20.362,495.855,43.698,69.145,18.031,5106.224,102.423,1
30.101,24.496,1367.792,72.152,27.147,26.759,1007.41,60.057,31.098,22.482,1333.919,71.813,1
35.614,14.593,1481.287,58.047,19.222,16.273,530.427,47.122,39.051,18.319,1762.631,77.551,1
31.487,25.481,1597.305,92.809,16.574,20.374,418.346,44.185,28.921,15.541,1020.035,52.323,1
19.862,14.955,590.754,58.726,8.068,8.907,83.991,15.784,51.495,11.942,2794.372,76.704,1
35.571,30.369,2009.378,105.048,18.807,21.984,493.587,42.159,55.321,12.879,3226.342,72.436,1
28.571,16.495,1088.406,60.756,15.415,19.025,370.189,42.343,72.149,19.576,5588.733,124.445,1
18.533,19.272,525.034,46.983,15.539,17.458,316.676,40.291,53.021,14.947,3034.607,90.694,1
13.455,13.014,258.192,29.907,11.025,14.421,211.292,39.008,28.431,33.209,1122.362,64.958,1
26.362,33.606,1361.718,106.098,16.053,17.016,426.548,43.267,20.915,21.884,669.206,53.136,1
14.015,16.091,263.196,29.328,10.907,12.851,169.689,30.845,14.932,17.65,382.852,53.677,1
20.174,25.152,643.396,61.753,15.66,17.597,377.791,46.576,28.012,16.733,1004.999,53.48,1
18.713,18.02,519.653,42.99,16.336,19.073,457.567,46.694,24.588,20.739,836.22,67.506,1
12.266,13.412,217.073,26.747,12.747,14.493,216.618,28.627,16.056,14.251,384.632,44.151,1
21.515,24.306,798.724,65.562,23.506,23.553,703.431,46.179,15.625,20.713,429.116,51.371,1
22.725,27.195,739.894,60.038,21.573,19.213,606.491,41.186,34.689,15.794,1452.761,66.084,1
20.269,19.685,537.361,42.675,18.631,21.78,479.271,39.135,16.046,19.265,423.466,54.013,1
26.804,25.204,886.84,52.123,13.383,14.844,258.131,39.048,24.766,18.131,789.878,57.508,1
22.606,18.143,745.012,51.693,14.738,17.194,297.043,36.955,14.769,16.401,290.407,34.882,1
20.949,20.221,739.522,64.651,7.589,9.008,82.914,17.11,11.864,13.728,193.596,26.628,1
17.176,15.131,413.013,47.108,14.39,16.205,268.631,34.443,11.997,14.708,218.822,32.049,1
20.22,21.947,619.004,52.085,15.492,18.703,350.875,45.371,16.273,19.36,390.594,40.675,1
19.631,15.485,569.128,46.374,13.009,17.093,292.9,44.601,16.359,19.896,397.35,40.063,1
19.579,23.019,568.173,44.514,11.567,12.984,194.393,38.228,16.445,21.003,441.182,48.216,1
22.862,20.159,855.274,60.447,11.422,12.669,179.787,27.527,17.815,20.606,429.96,38.99,1
32.39,45.554,2092.742,108.798,18.173,23.077,565.731,53.454,32.705,17.129,1363.007,62.055,1
22.314,7.9,560.334,37.094,11.487,14.018,196.524,26.515,21.803,22.962,769.895,60.459,1
33.568,36.453,1402.74,77.955,12.103,15.217,231.847,30.899,35.022,26.921,1704.048,73.344,1
13.109,16.163,274.204,33.988,9.097,9.519,131.34,24.707,12.046,15.87,268.159,45.888,1
10.772,13.306,180.815,28.462,10.306,12.392,176.493,30.461,30.512,29.29,1231.779,69.981,1
18.078,18.683,543.656,57.428,13.63,19.266,375.023,54.319,23.213,25.992,677.946,60.244,1
12.939,14.96,251.473,39.366,35.554,23.398,1505.656,58.332,35.127,29.117,1561.495,67.003,1
21.118,24.926,651.887,53.337,64.808,30.054,5103.271,115.137,65.249,49.342,6122.81,143.483,1
17.514,14.046,449.928,41.914,91.387,23.206,8890.017,137.455,40.368,32.126,2138.035,84.718,1
12.355,13.73,196.433,26.63,103.571,23.947,11300.366,153.249,51.645,55.17,3395.622,102.418,1
76.799,67.285,7581.522,133.557,112.791,52.489,15476.892,173.075,47.051,55.218,3464.158,156.499,1
80.921,107.611,12173.267,243.289,81.52,90.808,12290.825,241.365,26.208,29.941,907.911,60.528,1
164.347,81.97,33728.813,316.878,106.455,80.574,17105.939,238.551,77.851,72.322,10538.37,228.54,1
198.564,194.682,53373.047,374.689,177.524,157.393,53198.641,485.601,92.788,110.306,12734.236,257.285,1
1351.858,630.841,2225481.5,2156.528,317.264,195.249,133197.766,726.29,139.102,135.641,31277.812,370.288,1
1767.839,128.057,3141652.75,1989.209,404.729,218.206,206533.141,691.608,89.774,102.632,10710.134,172.871,1
1375.062,99.605,1900717.125,1547.249,651.966,317.152,525644.75,1214.297,121.928,148.594,22193.664,368.708,1
1069.552,77.474,1149943.125,1203.482,373.325,254.634,201218.422,848.723,107.98,76.293,14585.331,242.649,1
831.92,60.26,695721.375,936.094,183.237,223.169,62324.309,596.373,109.695,117.809,19051.58,350.97,1
647.084,46.872,420914.625,728.113,163.604,182.221,33752.527,343.314,101.158,120.911,17909.26,341.226,1
503.315,36.459,254655.375,566.341,140.525,168.017,35341.816,449.461,121.134,130.481,19003.234,284.898,1
295.421,249.08,107589.57,440.511,159.434,90.405,33461.816,352.838,87.766,87.169,11608.014,260.595,1
377.017,269.478,209085.297,771.108,164.941,148.606,44331.613,455.512,146.31,110.752,30066.328,363.38,1
568.348,159.418,348433.125,797.438,136.171,114.698,30301.832,331.94,210.024,172.656,60569.781,489.108,1
748.98,168.323,589303.25,971.562,196.615,108.087,50340.086,364.163,112.869,72.67,18020.437,250.115,1
703.322,70.002,499561.969,868.834,157.043,119.953,33608.996,323.658,82.521,85.005,10371.605,241.909,1
865.805,81.699,756293.375,1056.576,139.844,103.228,29882.961,322.53,77.941,81.122,9627.102,226.651,1
1090.136,105.848,1199600.625,1239.029,213.64,101.289,55901.5,445.141,73.718,75.572,7085.822,192.704,1
1081.314,114.326,1182310.5,1226.582,147.995,109.628,31356.812,310.201,60.573,68.155,5449.246,140.382,1
1112.953,61.351,1242427.25,1233.357,156.038,66.907,28824.322,311.34,89.665,76.84,13534.822,267.787,1
1053.365,73.327,1114953.625,1221.023,128.805,93.029,18768.754,257.168,100.082,73.134,13237.223,223.239,1
946.455,122.951,910893.625,1148.753,118.004,113.831,25575.393,353.26,88.013,50.252,9866.262,177.432,1
864.631,128.822,764182.5,1057.768,118.1,89.941,19952.592,270.252,87.97,103.97,16036.238,358.204,1
687.331,140.345,492120.875,982.091,106.578,142.873,20534.855,298.726,84.548,84.749,13060.688,272.04,1
598.741,127.749,374810.875,835.522,119.79,135.482,21948.34,280.169,86.281,94.439,11089.839,219.048,1
487.59,62.119,241602.906,618.101,119.781,129.043,19511.861,241.993,62.49,76.13,5850.975,187.158,1
282.8,133.672,97844.008,504.791,65.351,77.367,6729.763,236.114,59.341,67.115,4760.764,119.013,1
206.697,118.0,53203.102,458.076,106.853,126.082,15993.07,233.334,59.259,71.548,5204.142,151.297,1
129.96,139.0,26487.857,351.786,131.092,147.61,22428.133,256.379,139.733,161.642,28143.037,323.179,1
93.498,109.92,15693.642,257.098,151.408,167.533,31941.154,314.231,110.463,127.653,19943.529,314.958,1
157.433,149.649,33163.488,311.12,218.94,244.767,61202.301,434.838,112.489,146.134,22268.193,298.525,1
195.383,113.54,50206.102,400.125,129.538,164.589,27097.008,340.946,101.18,129.617,17182.641,276.432,1
221.296,134.639,66933.023,526.645,115.026,132.143,17495.049,241.664,74.306,70.773,6528.775,147.549,1
294.046,110.388,98648.812,533.666,83.399,111.773,12943.605,286.108,88.801,101.541,11107.67,186.21,1
312.44,69.889,102503.492,441.524,128.702,151.549,23014.859,255.573,71.292,78.013,7613.307,152.024,1
316.071,112.147,112477.93,521.888,89.176,109.333,12525.66,229.22,50.752,62.035,4095.695,135.637,1
